 # step  time  dipole  field  qtot  qtot0
       1        0.00      0.0000000000E+00      0.0000000000E+00      0.0000000000E+00      0.0000000000E+00      0.0000000000E+00      0.0000000000E+00      0.0000000000E+00      0.0000000000E+00
       2        0.20     -0.4743384505E-18     -0.1742346773E-17      0.1152015109E-01      0.7858215819E-22      0.2625264469E-21     -0.1707110243E-05      0.1209088675E-08      0.0000000000E+00
       4        0.60     -0.3171291355E-17     -0.1196010522E-16      0.6893941010E-01      0.4202077512E-21      0.1621274001E-20     -0.1021576646E-04      0.7230340035E-08      0.0000000000E+00
       6        1.00     -0.8131516294E-17     -0.2448941657E-16      0.1715570118E+00      0.1879354352E-20      0.3695842977E-20     -0.2542212597E-04      0.1796975985E-07      0.0000000000E+00
       8        1.40     -0.1387778781E-16     -0.5339695699E-16      0.3181351383E+00      0.2011703250E-20      0.7232867276E-20     -0.4714276306E-04      0.3326127917E-07      0.0000000000E+00
      10        1.80     -0.1235990477E-16     -0.8988036010E-16      0.5069133147E+00      0.1270549421E-20      0.1261284998E-19     -0.7511680230E-04      0.5286940165E-07      0.0000000000E+00
      12        2.20     -0.1214306433E-16     -0.1289658484E-15      0.7356295520E+00      0.1217609862E-20      0.1893912731E-19     -0.1090090515E-03      0.7649302208E-07      0.0000000000E+00
      14        2.60     -0.1647987302E-16     -0.1717918342E-15      0.1001547449E+01      0.4341043855E-20      0.2767415457E-19     -0.1484140178E-03      0.1037702972E-06      0.0000000000E+00
      16        3.00     -0.4900593820E-16     -0.2349466108E-15      0.1301488929E+01      0.3282252671E-20      0.3683269832E-19     -0.1928607589E-03      0.1342844873E-06      0.0000000000E+00
      18        3.40     -0.3122502257E-16     -0.2985892783E-15      0.1631872223E+01      0.7835054762E-20      0.4396630392E-19     -0.2418185113E-03      0.1675706708E-06      0.0000000000E+00
      20        3.80     -0.3903127821E-16     -0.3496552006E-15      0.1988754638E+01      0.8364450354E-20      0.4881027359E-19     -0.2947030283E-03      0.2031232190E-06      0.0000000000E+00
      22        4.20     -0.9280770596E-16     -0.4202367621E-15      0.2367879609E+01      0.1545835129E-19      0.6019227881E-19     -0.3508835521E-03      0.2404039079E-06      0.0000000000E+00
      24        4.60     -0.1006139616E-15     -0.4829036476E-15      0.2764727468E+01      0.1122318655E-19      0.7435361090E-19     -0.4096903368E-03      0.2788505298E-06      0.0000000000E+00
      26        5.00     -0.7632783294E-16     -0.5726755875E-15      0.3174569318E+01      0.1376428539E-19      0.8613266282E-19     -0.4704226323E-03      0.3178858637E-06      0.0000000000E+00
      28        5.40     -0.4510281038E-16     -0.7006114439E-15      0.3592523388E+01      0.1164670302E-19      0.9730290982E-19     -0.5323570348E-03      0.3569268534E-06      0.0000000000E+00
      30        5.80     -0.4163336342E-16     -0.7953707137E-15      0.4013613180E+01      0.5717472394E-20      0.1193787060E-18     -0.5947561032E-03      0.3953938437E-06      0.0000000000E+00
      32        6.20     -0.4163336342E-16     -0.9272096979E-15      0.4432826719E+01      0.1905824131E-20      0.1393369198E-18     -0.6568771398E-03      0.4327197204E-06      0.0000000000E+00
      34        6.60      0.4683753385E-16     -0.1010910106E-14      0.4845176211E+01     -0.2117582368E-20      0.1564893370E-18     -0.7179810295E-03      0.4683588045E-06      0.0000000000E+00
      36        7.00      0.3816391647E-16     -0.1212571710E-14      0.5245757385E+01     -0.1312901068E-19      0.1785121936E-18     -0.7773410343E-03      0.5017953548E-06      0.0000000000E+00
      38        7.40      0.2081668171E-15     -0.1362625290E-14      0.5629807820E+01     -0.1016439537E-19      0.1946058196E-18     -0.8342514365E-03      0.5325515398E-06      0.0000000000E+00
      40        7.80      0.1630640067E-15     -0.1500102126E-14      0.5992763566E+01     -0.1185846126E-19      0.2192227147E-18     -0.8880359283E-03      0.5601947496E-06      0.0000000000E+00
      42        8.20      0.3087807787E-15     -0.1644951536E-14      0.6330313380E+01     -0.2752857079E-19      0.2453219173E-18     -0.9380556494E-03      0.5843441306E-06      0.0000000000E+00
      44        8.60      0.2567390744E-15     -0.1842710012E-14      0.6638449931E+01     -0.3726944968E-19      0.2643801587E-18     -0.9837167748E-03      0.6046762378E-06      0.0000000000E+00
      46        9.00      0.4232725281E-15     -0.1956768081E-14      0.6913517380E+01     -0.4531626268E-19      0.3057788940E-18     -0.1024477565E-02      0.6209297162E-06      0.0000000000E+00
      48        9.40      0.5169475958E-15     -0.2373969077E-14      0.7152254745E+01     -0.7877406409E-19      0.3334133439E-18     -0.1059854792E-02      0.6329089392E-06      0.0000000000E+00
      50        9.80      0.5308253836E-15     -0.2442490654E-14      0.7351834568E+01     -0.8300922883E-19      0.3666593870E-18     -0.1089429470E-02      0.6404865492E-06      0.0000000000E+00
      52       10.20      0.7320533069E-15     -0.2576064362E-14      0.7509896393E+01     -0.9656175599E-19      0.3895292766E-18     -0.1112851816E-02      0.6436048649E-06      0.0000000000E+00
      54       10.60      0.7389922008E-15     -0.2746934624E-14      0.7624574689E+01     -0.1067261514E-18      0.4290221878E-18     -0.1129845386E-02      0.6422761386E-06      0.0000000000E+00
      56       11.00      0.1020017404E-14     -0.2941657334E-14      0.7694520860E+01     -0.1329841727E-18      0.4501980115E-18     -0.1140210339E-02      0.6365816680E-06      0.0000000000E+00
      58       11.40      0.1134509153E-14     -0.2997168486E-14      0.7718919105E+01     -0.1677125236E-18      0.4301868581E-18     -0.1143825786E-02      0.6266697827E-06      0.0000000000E+00
      60       11.80      0.1183081411E-14     -0.3161967216E-14      0.7697495929E+01     -0.1706771389E-18      0.4553860883E-18     -0.1140651198E-02      0.6127527487E-06      0.0000000000E+00
      62       12.20      0.1134509153E-14     -0.3116864405E-14      0.7630523195E+01     -0.1664419741E-18      0.4740208131E-18     -0.1130726863E-02      0.5951026495E-06      0.0000000000E+00
      64       12.60      0.1370431546E-14     -0.3292071477E-14      0.7518814689E+01     -0.1990527426E-18      0.4759266372E-18     -0.1114173371E-02      0.5740463206E-06      0.0000000000E+00
      66       13.00      0.1311450948E-14     -0.3356256245E-14      0.7363716235E+01     -0.2037114238E-18      0.5063139442E-18     -0.1091190151E-02      0.5499594290E-06      0.0000000000E+00
      68       13.40      0.1453698273E-14     -0.3425645184E-14      0.7167089487E+01     -0.2282753793E-18      0.5076903728E-18     -0.1062053074E-02      0.5232598041E-06      0.0000000000E+00
      70       13.80      0.1637578961E-14     -0.3451232355E-14      0.6931289579E+01     -0.2253107640E-18      0.4999611971E-18     -0.1027111133E-02      0.4944001383E-06      0.0000000000E+00
      72       14.20      0.1523087212E-14     -0.3444293462E-14      0.6659136921E+01     -0.2325105440E-18      0.4955142741E-18     -0.9867822704E-03      0.4638601847E-06      0.0000000000E+00
      74       14.60      0.1661865090E-14     -0.3279061050E-14      0.6353883468E+01     -0.2663918619E-18      0.4905908951E-18     -0.9415483761E-03      0.4321385884E-06      0.0000000000E+00
      76       15.00      0.1713906794E-14     -0.3394420162E-14      0.6019173857E+01     -0.2473336206E-18      0.5043022410E-18     -0.8919495296E-03      0.3997444922E-06      0.0000000000E+00
      78       15.40      0.1831867991E-14     -0.3291204115E-14      0.5659001898E+01     -0.2604626313E-18      0.4924967193E-18     -0.8385775525E-03      0.3671890606E-06      0.0000000000E+00
      80       15.80      0.1769417945E-14     -0.3246968666E-14      0.5277662916E+01     -0.2659683454E-18      0.4938731478E-18     -0.7820689462E-03      0.3349770672E-06      0.0000000000E+00
      82       16.20      0.1802377692E-14     -0.3223549899E-14      0.4879702529E+01     -0.2735916420E-18      0.4823852635E-18     -0.7230973018E-03      0.3035986867E-06      0.0000000000E+00
      84       16.60      0.1816255479E-14     -0.3141150534E-14      0.4469862462E+01     -0.2642742795E-18      0.4702091648E-18     -0.6623652706E-03      0.2735216310E-06      0.0000000000E+00
      86       17.00      0.1706967900E-14     -0.3052245956E-14      0.4053024055E+01     -0.2655448290E-18      0.4533214455E-18     -0.6005961923E-03      0.2451837579E-06      0.0000000000E+00
      88       17.40      0.1771152669E-14     -0.2887664066E-14      0.3634150118E+01     -0.2712623014E-18      0.4226694407E-18     -0.5385254796E-03      0.2189862763E-06      0.0000000000E+00
      90       17.80      0.1672273431E-14     -0.2650223790E-14      0.3218225849E+01     -0.2517805436E-18      0.4007524632E-18     -0.4768918627E-03      0.1952876577E-06      0.0000000000E+00
      92       18.20      0.1618497003E-14     -0.2455717921E-14      0.2810199507E+01     -0.2439454888E-18      0.3652300189E-18     -0.4164285976E-03      0.1743983501E-06      0.0000000000E+00
      94       18.60      0.1522219850E-14     -0.2277691924E-14      0.2414923536E+01     -0.2234049398E-18      0.3308457752E-18     -0.3578547427E-03      0.1565763797E-06      0.0000000000E+00
      96       19.00      0.1416401718E-14     -0.2005774019E-14      0.2037096862E+01     -0.2057231271E-18      0.2981291277E-18     -0.3018666069E-03      0.1420239048E-06      0.0000000000E+00
      98       19.40      0.1225582136E-14     -0.1758359083E-14      0.1681209038E+01     -0.1898412593E-18      0.2578950627E-18     -0.2491294729E-03      0.1308847726E-06      0.0000000000E+00
     100       19.80      0.1099814684E-14     -0.1476358098E-14      0.1351486888E+01     -0.1670772488E-18      0.2193021240E-18     -0.2002696920E-03      0.1232431106E-06      0.0000000000E+00
     102       20.20      0.9337149109E-15     -0.1194031853E-14      0.1051844317E+01     -0.1355252716E-18      0.1742108544E-18     -0.1558672445E-03      0.1191229659E-06      0.0000000000E+00
     104       20.60      0.7324869877E-15     -0.9106756148E-15      0.7858358425E+00     -0.1083672777E-18      0.1335797428E-18     -0.1164488561E-03      0.1184889882E-06      0.0000000000E+00
     106       21.00      0.5492568206E-15     -0.6327945980E-15      0.5566144388E+00     -0.8036225087E-19      0.9142000130E-19     -0.8248174894E-04      0.1212481314E-06      0.0000000000E+00
     108       21.40      0.3556183126E-15     -0.3380813424E-15      0.3668941605E+00     -0.5182782846E-19      0.4910144116E-19     -0.5436810460E-04      0.1272523360E-06      0.0000000000E+00
     110       21.80      0.1410547026E-15     -0.4317835152E-16      0.2189180104E+00     -0.2183756817E-19      0.7170001550E-20     -0.3244030178E-04      0.1363021311E-06      0.0000000000E+00
     112       22.20     -0.7036472099E-16      0.2238877486E-15      0.1144314226E+00      0.1073349563E-19     -0.3380025419E-19     -0.1695698711E-04      0.1481510853E-06      0.0000000000E+00
     114       22.60     -0.2809709930E-15      0.5036186854E-15      0.5466167604E-01      0.4241120437E-19     -0.7393340315E-19     -0.8100024586E-05      0.1625110174E-06      0.0000000000E+00
     116       23.00     -0.4936372491E-15      0.7519416405E-15      0.4030348230E-01      0.7288453813E-19     -0.1119861929E-18     -0.5972359817E-05      0.1790578663E-06      0.0000000000E+00
     118       23.40     -0.6996627670E-15      0.9939558942E-15      0.7151091520E-01      0.1033777242E-18     -0.1473341020E-18     -0.1059682420E-04      0.1974381091E-06      0.0000000000E+00
     120       23.80     -0.8969062472E-15      0.1210050940E-14      0.1478957774E+00      0.1329577029E-18     -0.1795594043E-18     -0.2191589282E-04      0.2172756070E-06      0.0000000000E+00
     122       24.20     -0.1085286375E-14      0.1406820081E-14      0.2685324202E+00      0.1609759646E-18     -0.2084362795E-18     -0.3979239869E-04      0.2381787523E-06      0.0000000000E+00
     124       24.60     -0.1266348137E-14      0.1581742549E-14      0.4319689569E+00      0.1876177978E-18     -0.2344560728E-18     -0.6401119441E-04      0.2597477854E-06      0.0000000000E+00
     126       25.00     -0.1437435240E-14      0.1729627726E-14      0.6362447346E+00      0.2131611351E-18     -0.2561414398E-18     -0.9428174119E-04      0.2815821484E-06      0.0000000000E+00
     128       25.40     -0.1585103576E-14      0.1849540486E-14      0.8789138527E+00      0.2358986758E-18     -0.2740548631E-18     -0.1302415940E-03      0.3032877432E-06      0.0000000000E+00
     130       25.80     -0.1724315135E-14      0.1933349314E-14      0.1157074448E+01      0.2550098567E-18     -0.2873956320E-18     -0.1714607410E-03      0.3244839636E-06      0.0000000000E+00
     132       26.20     -0.1835337438E-14      0.2000136168E-14      0.1467403395E+01      0.2720034552E-18     -0.2960777197E-18     -0.2174467458E-03      0.3448103773E-06      0.0000000000E+00
     134       26.60     -0.1922073611E-14      0.2025723339E-14      0.1806196003E+01      0.2835442791E-18     -0.3006305218E-18     -0.2676506300E-03      0.3639329404E-06      0.0000000000E+00
     136       27.00     -0.1983656295E-14      0.2038950606E-14      0.2169410244E+01      0.2938145536E-18     -0.3016760781E-18     -0.3214734269E-03      0.3815496353E-06      0.0000000000E+00
     138       27.40     -0.2034830637E-14      0.2026373860E-14      0.2552714978E+01      0.3017554875E-18     -0.2983144161E-18     -0.3782733275E-03      0.3973954362E-06      0.0000000000E+00
     140       27.80     -0.2020952850E-14      0.1956768081E-14      0.2951541592E+01      0.3032377951E-18     -0.2859530290E-18     -0.4373733334E-03      0.4112465193E-06      0.0000000000E+00
     142       28.20     -0.2033095914E-14      0.1819074405E-14      0.3361138459E+01      0.2970968062E-18     -0.2712093618E-18     -0.4980693262E-03      0.4229236450E-06      0.0000000000E+00
     144       28.60     -0.1991462550E-14      0.1667719782E-14      0.3776627546E+01      0.2939204327E-18     -0.2437337306E-18     -0.5596384559E-03      0.4322946625E-06      0.0000000000E+00
     146       29.00     -0.1918604164E-14      0.1465841337E-14      0.4193062508E+01      0.2790973561E-18     -0.2156757642E-18     -0.6213477498E-03      0.4392760956E-06      0.0000000000E+00
     148       29.40     -0.1852684672E-14      0.1242062009E-14      0.4605487571E+01      0.2843913120E-18     -0.1873531000E-18     -0.6824628380E-03      0.4438337917E-06      0.0000000000E+00
     150       29.80     -0.1667069260E-14      0.9866239770E-15      0.5008996511E+01      0.2553804336E-18     -0.1517247767E-18     -0.7422566930E-03      0.4459826298E-06      0.0000000000E+00
     152       30.20     -0.1533495553E-14      0.6986598799E-15      0.5398791013E+01      0.2346281264E-18     -0.1080496403E-18     -0.8000182781E-03      0.4457853022E-06      0.0000000000E+00
     154       30.60     -0.1427677421E-14      0.4458239333E-15      0.5770237735E+01      0.2113347203E-18     -0.7014491594E-19     -0.8550610027E-03      0.4433502007E-06      0.0000000000E+00
     156       31.00     -0.1242062009E-14      0.1084202172E-15      0.6118923377E+01      0.1884648308E-18     -0.1191140082E-19     -0.9067308833E-03      0.4388284548E-06      0.0000000000E+00
     158       31.40     -0.1040834086E-14     -0.2155393919E-15      0.6440707120E+01      0.1537364799E-18      0.2276401046E-19     -0.9544143138E-03      0.4324101848E-06      0.0000000000E+00
     160       31.80     -0.7355227538E-15     -0.6327403879E-15      0.6731769798E+01      0.1130788985E-18      0.7692117952E-19     -0.9975453522E-03      0.4243200474E-06      0.0000000000E+00
     162       32.20     -0.5932754288E-15     -0.9619041674E-15      0.6988659225E+01      0.7157428404E-19      0.1354193924E-18     -0.1035612437E-02      0.4148121617E-06      0.0000000000E+00
     164       32.60     -0.2636779683E-15     -0.1341808609E-14      0.7208331140E+01      0.4319868031E-19      0.1933352702E-18     -0.1068164456E-02      0.4041645179E-06      0.0000000000E+00
     166       33.00      0.1387778781E-16     -0.1693090113E-14      0.7388185283E+01     -0.6776263578E-20      0.2420396647E-18     -0.1094816090E-02      0.3926729777E-06      0.0000000000E+00
     168       33.40      0.4198030812E-15     -0.2136311961E-14      0.7526096171E+01     -0.5929230631E-19      0.3181667508E-18     -0.1115252375E-02      0.3806449831E-06      0.0000000000E+00
     170       33.80      0.6696032617E-15     -0.2442490654E-14      0.7620438216E+01     -0.1029145031E-18      0.3812707054E-18     -0.1129232424E-02      0.3683930952E-06      0.0000000000E+00
     172       34.20      0.1061650767E-14     -0.2864895821E-14      0.7670104884E+01     -0.1495013152E-18      0.4109168585E-18     -0.1136592264E-02      0.3562284879E-06      0.0000000000E+00
     174       34.60      0.1346145417E-14     -0.3219213091E-14      0.7674521670E+01     -0.2011703250E-18      0.4685150990E-18     -0.1137246764E-02      0.3444545196E-06      0.0000000000E+00
     176       35.00      0.1637578961E-14     -0.3451666036E-14      0.7633652740E+01     -0.2329340605E-18      0.5306661415E-18     -0.1131190614E-02      0.3333605077E-06      0.0000000000E+00
     178       35.40      0.2064320936E-14     -0.3863662862E-14      0.7548001154E+01     -0.2909558174E-18      0.5830763051E-18     -0.1118498359E-02      0.3232158219E-06      0.0000000000E+00
     180       35.80      0.2241262731E-14     -0.4143387022E-14      0.7418602686E+01     -0.3286487835E-18      0.6216163042E-18     -0.1099323484E-02      0.3142644110E-06      0.0000000000E+00
     182       36.20      0.2435551760E-14     -0.4434820566E-14      0.7247013297E+01     -0.3510951566E-18      0.6693677866E-18     -0.1073896560E-02      0.3067198636E-06      0.0000000000E+00
     184       36.60      0.2726985304E-14     -0.4793040964E-14      0.7035290430E+01     -0.4057287817E-18      0.7013432803E-18     -0.1042522469E-02      0.3007610994E-06      0.0000000000E+00
     186       37.00      0.2990663273E-14     -0.4840312179E-14      0.6785968343E+01     -0.4345279019E-18      0.7353304773E-18     -0.1005576748E-02      0.2965287698E-06      0.0000000000E+00
     188       37.40      0.3046174424E-14     -0.5132613085E-14      0.6502027771E+01     -0.4459628467E-18      0.7626472899E-18     -0.9635010966E-03      0.2941224363E-06      0.0000000000E+00
     190       37.80      0.3247402347E-14     -0.5322131624E-14      0.6186860297E+01     -0.4840793294E-18      0.7679941854E-18     -0.9167980960E-03      0.2935985801E-06      0.0000000000E+00
     192       38.20      0.3330669074E-14     -0.5312590645E-14      0.5844227838E+01     -0.4861969117E-18      0.7896464651E-18     -0.8660252047E-03      0.2949694797E-06      0.0000000000E+00
     194       38.60      0.3413935801E-14     -0.5419709820E-14      0.5478217746E+01     -0.5162665814E-18      0.8055812724E-18     -0.8117881055E-03      0.2982029770E-06      0.0000000000E+00
     196       39.00      0.3486794187E-14     -0.5444429629E-14      0.5093194046E+01     -0.5158430649E-18      0.8078576734E-18     -0.7547334803E-03      0.3032231375E-06      0.0000000000E+00
     198       39.40      0.3618633171E-14     -0.5391520563E-14      0.4693745404E+01     -0.5260074602E-18      0.7894876464E-18     -0.6955412993E-03      0.3099117889E-06      0.0000000000E+00
     200       39.80      0.3651592917E-14     -0.5330371561E-14      0.4284630445E+01     -0.5446421851E-18      0.7968462451E-18     -0.6349167179E-03      0.3181109130E-06      0.0000000000E+00
