 # step  time  dipole  field  qtot  qtot0
       1        0.00     -0.2526134432E-06     -0.1945530685E-09      0.3705208005E-02     -0.1890789543E-13     -0.1391431141E-15     -0.3621306366E-10      0.3708188293E-02
       3        0.40     -0.2526134432E-06     -0.1945530685E-09      0.3705208005E-02     -0.1890789543E-13     -0.1391431141E-15     -0.3621306366E-10      0.3708188293E-02
       4        0.60     -0.2526134432E-06     -0.1945530685E-09      0.3705208005E-02     -0.1890789543E-13     -0.1391431141E-15     -0.3621306366E-10      0.3708188293E-02
       5        0.80     -0.2526134432E-06     -0.1945530686E-09      0.3705208005E-02     -0.1890789543E-13     -0.1391431141E-15     -0.3621306366E-10      0.3708188293E-02
       6        1.00     -0.2526134432E-06     -0.1945530686E-09      0.3705208005E-02     -0.1890789543E-13     -0.1391431141E-15     -0.3621306366E-10      0.3708188293E-02
       7        1.20     -0.2526134432E-06     -0.1945530686E-09      0.3705208005E-02     -0.1890789543E-13     -0.1391431141E-15     -0.3621306366E-10      0.3708188293E-02
       8        1.40     -0.2526134432E-06     -0.1945530686E-09      0.3705208005E-02     -0.1890789543E-13     -0.1391431141E-15     -0.3621306366E-10      0.3708188293E-02
       9        1.60     -0.2526134432E-06     -0.1945530687E-09      0.3705208005E-02     -0.1890789543E-13     -0.1391431141E-15     -0.3621306366E-10      0.3708188293E-02
      10        1.80     -0.2526134432E-06     -0.1945530688E-09      0.3705208005E-02     -0.1890789543E-13     -0.1391431141E-15     -0.3621306366E-10      0.3708188293E-02
      11        2.00     -0.2526134432E-06     -0.1945530689E-09      0.3705208005E-02     -0.1890789543E-13     -0.1391431141E-15     -0.3621306366E-10      0.3708188293E-02
      12        2.20     -0.2526134432E-06     -0.1945530689E-09      0.3705208005E-02     -0.1890789543E-13     -0.1391431141E-15     -0.3621306366E-10      0.3708188293E-02
      13        2.40     -0.2526134432E-06     -0.1945530690E-09      0.3705208005E-02     -0.1890789543E-13     -0.1391431141E-15     -0.3621306366E-10      0.3708188293E-02
      14        2.60     -0.2526134432E-06     -0.1945530690E-09      0.3705208005E-02     -0.1890789543E-13     -0.1391431141E-15     -0.3621306366E-10      0.3708188293E-02
      15        2.80     -0.2526134432E-06     -0.1945530691E-09      0.3705208005E-02     -0.1890789543E-13     -0.1391431141E-15     -0.3621306366E-10      0.3708188293E-02
      16        3.00     -0.2526134432E-06     -0.1945530692E-09      0.3705208005E-02     -0.1890789543E-13     -0.1391431141E-15     -0.3621306366E-10      0.3708188293E-02
      17        3.20     -0.2526134432E-06     -0.1945530693E-09      0.3705208005E-02     -0.1890789543E-13     -0.1391431141E-15     -0.3621306366E-10      0.3708188293E-02
      18        3.40     -0.2526134432E-06     -0.1945530693E-09      0.3705208005E-02     -0.1890789543E-13     -0.1391431141E-15     -0.3621306366E-10      0.3708188293E-02
      19        3.60     -0.2526134432E-06     -0.1945530694E-09      0.3705208005E-02     -0.1890789543E-13     -0.1391431141E-15     -0.3621306366E-10      0.3708188293E-02
      20        3.80     -0.2526134432E-06     -0.1945530695E-09      0.3705208005E-02     -0.1890789543E-13     -0.1391431141E-15     -0.3621306366E-10      0.3708188293E-02
      21        4.00     -0.2526134432E-06     -0.1945530696E-09      0.3705208005E-02     -0.1890789543E-13     -0.1391431141E-15     -0.3621306366E-10      0.3708188293E-02
      22        4.20     -0.2526134432E-06     -0.1945530697E-09      0.3705208005E-02     -0.1890789543E-13     -0.1391431141E-15     -0.3621306366E-10      0.3708188293E-02
      23        4.40     -0.2526134432E-06     -0.1945530698E-09      0.3705208005E-02     -0.1890789543E-13     -0.1391431141E-15     -0.3621306366E-10      0.3708188293E-02
      24        4.60     -0.2526134432E-06     -0.1945530700E-09      0.3705208005E-02     -0.1890789543E-13     -0.1391431141E-15     -0.3621306366E-10      0.3708188293E-02
      25        4.80     -0.2526134432E-06     -0.1945530701E-09      0.3705208005E-02     -0.1890789543E-13     -0.1391431141E-15     -0.3621306366E-10      0.3708188293E-02
      26        5.00     -0.2526134432E-06     -0.1945530703E-09      0.3705208005E-02     -0.1890789543E-13     -0.1391431141E-15     -0.3621306366E-10      0.3708188293E-02
      27        5.20     -0.2526134432E-06     -0.1945530704E-09      0.3705208005E-02     -0.1890789543E-13     -0.1391431141E-15     -0.3621306366E-10      0.3708188293E-02
      28        5.40     -0.2526134432E-06     -0.1945530706E-09      0.3705208005E-02     -0.1890789543E-13     -0.1391431141E-15     -0.3621306366E-10      0.3708188293E-02
      29        5.60     -0.2526134432E-06     -0.1945530707E-09      0.3705208005E-02     -0.1890789543E-13     -0.1391431141E-15     -0.3621306366E-10      0.3708188293E-02
      30        5.80     -0.2526134432E-06     -0.1945530709E-09      0.3705208005E-02     -0.1890789543E-13     -0.1391431141E-15     -0.3621306366E-10      0.3708188293E-02
      31        6.00     -0.2526134432E-06     -0.1945530710E-09      0.3705208005E-02     -0.1890789543E-13     -0.1391431141E-15     -0.3621306366E-10      0.3708188293E-02
      32        6.20     -0.2526134432E-06     -0.1945530712E-09      0.3705208005E-02     -0.1890789543E-13     -0.1391431141E-15     -0.3621306366E-10      0.3708188293E-02
      33        6.40     -0.2526134432E-06     -0.1945530714E-09      0.3705208005E-02     -0.1890789543E-13     -0.1391431141E-15     -0.3621306366E-10      0.3708188293E-02
      34        6.60     -0.2526134432E-06     -0.1945530715E-09      0.3705208005E-02     -0.1890789543E-13     -0.1391431141E-15     -0.3621306366E-10      0.3708188293E-02
      35        6.80     -0.2526134432E-06     -0.1945530717E-09      0.3705208005E-02     -0.1890789543E-13     -0.1391431141E-15     -0.3621306366E-10      0.3708188293E-02
      36        7.00     -0.2526134432E-06     -0.1945530719E-09      0.3705208005E-02     -0.1890789543E-13     -0.1391431140E-15     -0.3621306366E-10      0.3708188293E-02
      37        7.20     -0.2526134432E-06     -0.1945530720E-09      0.3705208005E-02     -0.1890789543E-13     -0.1391431140E-15     -0.3621306366E-10      0.3708188293E-02
      38        7.40     -0.2526134432E-06     -0.1945530722E-09      0.3705208005E-02     -0.1890789543E-13     -0.1391431140E-15     -0.3621306366E-10      0.3708188293E-02
      39        7.60     -0.2526134432E-06     -0.1945530724E-09      0.3705208005E-02     -0.1890789543E-13     -0.1391431140E-15     -0.3621306366E-10      0.3708188293E-02
      40        7.80     -0.2526134432E-06     -0.1945530726E-09      0.3705208005E-02     -0.1890789543E-13     -0.1391431140E-15     -0.3621306366E-10      0.3708188293E-02
      41        8.00     -0.2526134432E-06     -0.1945530728E-09      0.3705208005E-02     -0.1890789543E-13     -0.1391431140E-15     -0.3621306366E-10      0.3708188293E-02
      42        8.20     -0.2526134432E-06     -0.1945530729E-09      0.3705208005E-02     -0.1890789543E-13     -0.1391431140E-15     -0.3621306366E-10      0.3708188293E-02
      43        8.40     -0.2526134432E-06     -0.1945530731E-09      0.3705208005E-02     -0.1890789543E-13     -0.1391431140E-15     -0.3621306366E-10      0.3708188293E-02
      44        8.60     -0.2526134432E-06     -0.1945530733E-09      0.3705208005E-02     -0.1890789543E-13     -0.1391431140E-15     -0.3621306366E-10      0.3708188293E-02
      45        8.80     -0.2526134432E-06     -0.1945530735E-09      0.3705208005E-02     -0.1890789543E-13     -0.1391431140E-15     -0.3621306366E-10      0.3708188293E-02
      46        9.00     -0.2526134432E-06     -0.1945530736E-09      0.3705208005E-02     -0.1890789543E-13     -0.1391431140E-15     -0.3621306366E-10      0.3708188293E-02
      47        9.20     -0.2526134432E-06     -0.1945530738E-09      0.3705208005E-02     -0.1890789543E-13     -0.1391431140E-15     -0.3621306366E-10      0.3708188293E-02
      48        9.40     -0.2526134432E-06     -0.1945530740E-09      0.3705208005E-02     -0.1890789543E-13     -0.1391431140E-15     -0.3621306366E-10      0.3708188293E-02
      49        9.60     -0.2526134432E-06     -0.1945530742E-09      0.3705208005E-02     -0.1890789543E-13     -0.1391431140E-15     -0.3621306366E-10      0.3708188293E-02
      50        9.80     -0.2526134432E-06     -0.1945530743E-09      0.3705208005E-02     -0.1890789543E-13     -0.1391431140E-15     -0.3621306366E-10      0.3708188293E-02
      51       10.00     -0.2526134432E-06     -0.1945530745E-09      0.3705208005E-02     -0.1890789543E-13     -0.1391431140E-15     -0.3621306366E-10      0.3708188293E-02
      52       10.20     -0.2526134432E-06     -0.1945530746E-09      0.3705208005E-02     -0.1890789543E-13     -0.1391431140E-15     -0.3621306366E-10      0.3708188293E-02
      53       10.40     -0.2526134432E-06     -0.1945530748E-09      0.3705208005E-02     -0.1890789543E-13     -0.1391431140E-15     -0.3621306366E-10      0.3708188293E-02
      54       10.60     -0.2526134432E-06     -0.1945530750E-09      0.3705208005E-02     -0.1890789543E-13     -0.1391431140E-15     -0.3621306366E-10      0.3708188293E-02
      55       10.80     -0.2526134432E-06     -0.1945530751E-09      0.3705208005E-02     -0.1890789543E-13     -0.1391431140E-15     -0.3621306366E-10      0.3708188293E-02
      56       11.00     -0.2526134432E-06     -0.1945530752E-09      0.3705208005E-02     -0.1890789543E-13     -0.1391431140E-15     -0.3621306366E-10      0.3708188293E-02
      57       11.20     -0.2526134432E-06     -0.1945530754E-09      0.3705208005E-02     -0.1890789543E-13     -0.1391431140E-15     -0.3621306366E-10      0.3708188293E-02
      58       11.40     -0.2526134432E-06     -0.1945530755E-09      0.3705208005E-02     -0.1890789543E-13     -0.1391431140E-15     -0.3621306366E-10      0.3708188293E-02
      59       11.60     -0.2526134432E-06     -0.1945530756E-09      0.3705208005E-02     -0.1890789543E-13     -0.1391431140E-15     -0.3621306366E-10      0.3708188293E-02
      60       11.80     -0.2526134432E-06     -0.1945530758E-09      0.3705208005E-02     -0.1890789543E-13     -0.1391431140E-15     -0.3621306366E-10      0.3708188293E-02
      61       12.00     -0.2526134432E-06     -0.1945530759E-09      0.3705208005E-02     -0.1890789543E-13     -0.1391431140E-15     -0.3621306366E-10      0.3708188293E-02
      62       12.20     -0.2526134432E-06     -0.1945530761E-09      0.3705208005E-02     -0.1890789543E-13     -0.1391431140E-15     -0.3621306366E-10      0.3708188293E-02
      63       12.40     -0.2526134432E-06     -0.1945530761E-09      0.3705208005E-02     -0.1890789543E-13     -0.1391431140E-15     -0.3621306366E-10      0.3708188293E-02
      64       12.60     -0.2526134432E-06     -0.1945530763E-09      0.3705208005E-02     -0.1890789543E-13     -0.1391431140E-15     -0.3621306366E-10      0.3708188293E-02
      65       12.80     -0.2526134432E-06     -0.1945530764E-09      0.3705208005E-02     -0.1890789543E-13     -0.1391431140E-15     -0.3621306366E-10      0.3708188293E-02
      66       13.00     -0.2526134432E-06     -0.1945530765E-09      0.3705208005E-02     -0.1890789543E-13     -0.1391431140E-15     -0.3621306366E-10      0.3708188293E-02
      67       13.20     -0.2526134432E-06     -0.1945530766E-09      0.3705208005E-02     -0.1890789543E-13     -0.1391431140E-15     -0.3621306366E-10      0.3708188293E-02
      68       13.40     -0.2526134432E-06     -0.1945530767E-09      0.3705208005E-02     -0.1890789543E-13     -0.1391431140E-15     -0.3621306366E-10      0.3708188293E-02
      69       13.60     -0.2526134432E-06     -0.1945530768E-09      0.3705208005E-02     -0.1890789543E-13     -0.1391431140E-15     -0.3621306366E-10      0.3708188293E-02
      70       13.80     -0.2526134432E-06     -0.1945530769E-09      0.3705208005E-02     -0.1890789543E-13     -0.1391431140E-15     -0.3621306366E-10      0.3708188293E-02
      71       14.00     -0.2526134432E-06     -0.1945530769E-09      0.3705208005E-02     -0.1890789543E-13     -0.1391431140E-15     -0.3621306366E-10      0.3708188293E-02
      72       14.20     -0.2526134432E-06     -0.1945530770E-09      0.3705208005E-02     -0.1890789543E-13     -0.1391431140E-15     -0.3621306366E-10      0.3708188293E-02
      73       14.40     -0.2526134432E-06     -0.1945530771E-09      0.3705208005E-02     -0.1890789543E-13     -0.1391431140E-15     -0.3621306366E-10      0.3708188293E-02
      74       14.60     -0.2526134432E-06     -0.1945530771E-09      0.3705208005E-02     -0.1890789543E-13     -0.1391431140E-15     -0.3621306366E-10      0.3708188293E-02
      75       14.80     -0.2526134432E-06     -0.1945530772E-09      0.3705208005E-02     -0.1890789543E-13     -0.1391431140E-15     -0.3621306366E-10      0.3708188293E-02
      76       15.00     -0.2526134432E-06     -0.1945530772E-09      0.3705208005E-02     -0.1890789543E-13     -0.1391431140E-15     -0.3621306366E-10      0.3708188293E-02
      77       15.20     -0.2526134432E-06     -0.1945530773E-09      0.3705208005E-02     -0.1890789543E-13     -0.1391431140E-15     -0.3621306366E-10      0.3708188293E-02
      78       15.40     -0.2526134432E-06     -0.1945530773E-09      0.3705208005E-02     -0.1890789543E-13     -0.1391431140E-15     -0.3621306366E-10      0.3708188293E-02
      79       15.60     -0.2526134432E-06     -0.1945530773E-09      0.3705208005E-02     -0.1890789543E-13     -0.1391431140E-15     -0.3621306366E-10      0.3708188293E-02
      80       15.80     -0.2526134432E-06     -0.1945530773E-09      0.3705208005E-02     -0.1890789543E-13     -0.1391431140E-15     -0.3621306366E-10      0.3708188293E-02
      81       16.00     -0.2526134432E-06     -0.1945530774E-09      0.3705208005E-02     -0.1890789543E-13     -0.1391431140E-15     -0.3621306366E-10      0.3708188293E-02
      82       16.20     -0.2526134432E-06     -0.1945530774E-09      0.3705208005E-02     -0.1890789543E-13     -0.1391431140E-15     -0.3621306366E-10      0.3708188293E-02
      83       16.40     -0.2526134432E-06     -0.1945530773E-09      0.3705208005E-02     -0.1890789543E-13     -0.1391431140E-15     -0.3621306366E-10      0.3708188293E-02
      84       16.60     -0.2526134432E-06     -0.1945530773E-09      0.3705208005E-02     -0.1890789543E-13     -0.1391431140E-15     -0.3621306366E-10      0.3708188293E-02
      85       16.80     -0.2526134432E-06     -0.1945530773E-09      0.3705208005E-02     -0.1890789543E-13     -0.1391431140E-15     -0.3621306366E-10      0.3708188293E-02
      86       17.00     -0.2526134432E-06     -0.1945530773E-09      0.3705208005E-02     -0.1890789543E-13     -0.1391431140E-15     -0.3621306366E-10      0.3708188293E-02
      87       17.20     -0.2526134432E-06     -0.1945530773E-09      0.3705208005E-02     -0.1890789543E-13     -0.1391431140E-15     -0.3621306366E-10      0.3708188293E-02
      88       17.40     -0.2526134432E-06     -0.1945530772E-09      0.3705208005E-02     -0.1890789543E-13     -0.1391431140E-15     -0.3621306366E-10      0.3708188293E-02
      89       17.60     -0.2526134432E-06     -0.1945530772E-09      0.3705208005E-02     -0.1890789543E-13     -0.1391431140E-15     -0.3621306366E-10      0.3708188293E-02
      90       17.80     -0.2526134432E-06     -0.1945530772E-09      0.3705208005E-02     -0.1890789543E-13     -0.1391431140E-15     -0.3621306366E-10      0.3708188293E-02
      91       18.00     -0.2526134432E-06     -0.1945530771E-09      0.3705208005E-02     -0.1890789543E-13     -0.1391431140E-15     -0.3621306366E-10      0.3708188293E-02
      92       18.20     -0.2526134432E-06     -0.1945530771E-09      0.3705208005E-02     -0.1890789543E-13     -0.1391431140E-15     -0.3621306366E-10      0.3708188293E-02
      93       18.40     -0.2526134432E-06     -0.1945530771E-09      0.3705208005E-02     -0.1890789543E-13     -0.1391431140E-15     -0.3621306366E-10      0.3708188293E-02
      94       18.60     -0.2526134432E-06     -0.1945530770E-09      0.3705208005E-02     -0.1890789543E-13     -0.1391431140E-15     -0.3621306366E-10      0.3708188293E-02
      95       18.80     -0.2526134432E-06     -0.1945530769E-09      0.3705208005E-02     -0.1890789543E-13     -0.1391431140E-15     -0.3621306366E-10      0.3708188293E-02
      96       19.00     -0.2526134432E-06     -0.1945530769E-09      0.3705208005E-02     -0.1890789543E-13     -0.1391431140E-15     -0.3621306366E-10      0.3708188293E-02
      97       19.20     -0.2526134432E-06     -0.1945530768E-09      0.3705208005E-02     -0.1890789543E-13     -0.1391431140E-15     -0.3621306366E-10      0.3708188293E-02
      98       19.40     -0.2526134432E-06     -0.1945530767E-09      0.3705208005E-02     -0.1890789543E-13     -0.1391431140E-15     -0.3621306366E-10      0.3708188293E-02
      99       19.60     -0.2526134432E-06     -0.1945530766E-09      0.3705208005E-02     -0.1890789543E-13     -0.1391431140E-15     -0.3621306366E-10      0.3708188293E-02
     100       19.80     -0.2526134432E-06     -0.1945530766E-09      0.3705208005E-02     -0.1890789543E-13     -0.1391431140E-15     -0.3621306366E-10      0.3708188293E-02
     101       20.00     -0.2526134432E-06     -0.1945530764E-09      0.3705208005E-02     -0.1890789543E-13     -0.1391431140E-15     -0.3621306366E-10      0.3708188293E-02
     102       20.20     -0.2526134432E-06     -0.1945530763E-09      0.3705208005E-02     -0.1890789543E-13     -0.1391431140E-15     -0.3621306366E-10      0.3708188293E-02
     103       20.40     -0.2526134432E-06     -0.1945530762E-09      0.3705208005E-02     -0.1890789543E-13     -0.1391431140E-15     -0.3621306366E-10      0.3708188293E-02
     104       20.60     -0.2526134432E-06     -0.1945530761E-09      0.3705208005E-02     -0.1890789543E-13     -0.1391431140E-15     -0.3621306366E-10      0.3708188293E-02
     105       20.80     -0.2526134432E-06     -0.1945530760E-09      0.3705208005E-02     -0.1890789543E-13     -0.1391431140E-15     -0.3621306366E-10      0.3708188293E-02
     106       21.00     -0.2526134432E-06     -0.1945530759E-09      0.3705208005E-02     -0.1890789543E-13     -0.1391431140E-15     -0.3621306366E-10      0.3708188293E-02
     107       21.20     -0.2526134432E-06     -0.1945530757E-09      0.3705208005E-02     -0.1890789543E-13     -0.1391431140E-15     -0.3621306366E-10      0.3708188293E-02
     108       21.40     -0.2526134432E-06     -0.1945530756E-09      0.3705208005E-02     -0.1890789543E-13     -0.1391431140E-15     -0.3621306366E-10      0.3708188293E-02
     109       21.60     -0.2526134432E-06     -0.1945530754E-09      0.3705208005E-02     -0.1890789543E-13     -0.1391431140E-15     -0.3621306366E-10      0.3708188293E-02
     110       21.80     -0.2526134432E-06     -0.1945530753E-09      0.3705208005E-02     -0.1890789543E-13     -0.1391431140E-15     -0.3621306366E-10      0.3708188293E-02
     111       22.00     -0.2526134432E-06     -0.1945530751E-09      0.3705208005E-02     -0.1890789543E-13     -0.1391431140E-15     -0.3621306366E-10      0.3708188293E-02
     112       22.20     -0.2526134432E-06     -0.1945530750E-09      0.3705208005E-02     -0.1890789543E-13     -0.1391431140E-15     -0.3621306366E-10      0.3708188293E-02
     113       22.40     -0.2526134432E-06     -0.1945530748E-09      0.3705208005E-02     -0.1890789543E-13     -0.1391431140E-15     -0.3621306366E-10      0.3708188293E-02
     114       22.60     -0.2526134432E-06     -0.1945530746E-09      0.3705208005E-02     -0.1890789543E-13     -0.1391431140E-15     -0.3621306366E-10      0.3708188293E-02
     115       22.80     -0.2526134432E-06     -0.1945530744E-09      0.3705208005E-02     -0.1890789543E-13     -0.1391431140E-15     -0.3621306366E-10      0.3708188293E-02
