# istep   time (au)    Population 0,1,...,n_ci
       1        0.0000  0.10000E+01  0.00000E+00  0.00000E+00  0.00000E+00  0.00000E+00  0.00000E+00
       2        0.2000  0.10000E+01  0.70680E-70  0.70908E-41  0.89783E-41  0.37786E-43  0.12727E-37
       4        0.6000  0.10000E+01  0.60394E-69  0.65982E-40  0.95956E-40  0.41392E-42  0.14459E-36
       6        1.0000  0.10000E+01  0.21156E-68  0.17451E-39  0.29178E-39  0.11534E-41  0.45460E-36
       8        1.4000  0.10000E+01  0.39923E-68  0.35627E-39  0.63328E-39  0.22834E-41  0.98688E-36
      10        1.8000  0.10000E+01  0.61222E-68  0.55980E-39  0.11379E-38  0.41378E-41  0.17860E-35
      12        2.2000  0.10000E+01  0.10250E-67  0.84444E-39  0.18570E-38  0.58132E-41  0.28958E-35
      14        2.6000  0.10000E+01  0.14039E-67  0.11672E-38  0.28457E-38  0.86295E-41  0.43587E-35
      16        3.0000  0.10000E+01  0.18020E-67  0.14826E-38  0.41032E-38  0.11903E-40  0.62145E-35
      18        3.4000  0.10000E+01  0.22999E-67  0.18496E-38  0.56839E-38  0.15660E-40  0.84997E-35
      20        3.8000  0.10000E+01  0.29849E-67  0.22594E-38  0.75474E-38  0.19449E-40  0.11247E-34
      22        4.2000  0.10000E+01  0.38187E-67  0.27452E-38  0.96305E-38  0.23278E-40  0.14483E-34
      24        4.6000  0.10000E+01  0.43648E-67  0.32378E-38  0.12220E-37  0.27622E-40  0.18229E-34
      26        5.0000  0.10000E+01  0.49698E-67  0.37290E-38  0.15221E-37  0.31455E-40  0.22503E-34
      28        5.4000  0.10000E+01  0.60203E-67  0.41634E-38  0.18731E-37  0.36918E-40  0.27312E-34
      30        5.8000  0.10000E+01  0.63543E-67  0.46500E-38  0.22493E-37  0.40356E-40  0.32659E-34
      32        6.2000  0.10000E+01  0.76323E-67  0.51876E-38  0.26461E-37  0.45968E-40  0.38539E-34
      34        6.6000  0.10000E+01  0.88699E-67  0.55147E-38  0.31002E-37  0.53665E-40  0.44938E-34
      36        7.0000  0.10000E+01  0.10583E-66  0.57085E-38  0.36046E-37  0.58219E-40  0.51837E-34
      38        7.4000  0.10000E+01  0.11912E-66  0.61086E-38  0.41420E-37  0.63842E-40  0.59207E-34
      40        7.8000  0.10000E+01  0.13499E-66  0.64745E-38  0.47308E-37  0.70420E-40  0.67013E-34
      42        8.2000  0.10000E+01  0.15423E-66  0.68046E-38  0.53609E-37  0.76556E-40  0.75213E-34
      44        8.6000  0.10000E+01  0.17330E-66  0.70339E-38  0.60002E-37  0.82602E-40  0.83759E-34
      46        9.0000  0.10000E+01  0.19856E-66  0.71304E-38  0.66730E-37  0.88433E-40  0.92593E-34
      48        9.4000  0.10000E+01  0.21077E-66  0.73358E-38  0.73239E-37  0.93318E-40  0.10166E-33
      50        9.8000  0.10000E+01  0.23850E-66  0.74362E-38  0.80502E-37  0.96902E-40  0.11088E-33
      52       10.2000  0.10000E+01  0.26427E-66  0.75060E-38  0.87555E-37  0.10188E-39  0.12020E-33
      54       10.6000  0.10000E+01  0.28622E-66  0.75291E-38  0.94518E-37  0.10871E-39  0.12954E-33
      56       11.0000  0.10000E+01  0.31623E-66  0.75386E-38  0.10163E-36  0.11413E-39  0.13882E-33
      58       11.4000  0.10000E+01  0.34278E-66  0.75118E-38  0.10888E-36  0.11717E-39  0.14797E-33
      60       11.8000  0.10000E+01  0.37375E-66  0.74633E-38  0.11642E-36  0.12174E-39  0.15690E-33
      62       12.2000  0.10000E+01  0.39490E-66  0.73724E-38  0.12353E-36  0.12692E-39  0.16554E-33
      64       12.6000  0.10000E+01  0.41122E-66  0.72601E-38  0.13012E-36  0.13041E-39  0.17381E-33
      66       13.0000  0.10000E+01  0.43881E-66  0.71592E-38  0.13668E-36  0.13329E-39  0.18164E-33
      68       13.4000  0.10000E+01  0.46008E-66  0.71238E-38  0.14274E-36  0.13613E-39  0.18896E-33
      70       13.8000  0.10000E+01  0.48325E-66  0.69457E-38  0.14864E-36  0.13729E-39  0.19569E-33
      72       14.2000  0.10000E+01  0.50486E-66  0.67308E-38  0.15375E-36  0.13821E-39  0.20178E-33
      74       14.6000  0.10000E+01  0.52307E-66  0.66672E-38  0.15856E-36  0.13843E-39  0.20717E-33
      76       15.0000  0.10000E+01  0.54437E-66  0.64597E-38  0.16306E-36  0.13798E-39  0.21180E-33
      78       15.4000  0.10000E+01  0.56102E-66  0.63475E-38  0.16697E-36  0.13655E-39  0.21565E-33
      80       15.8000  0.10000E+01  0.57423E-66  0.61987E-38  0.17031E-36  0.13465E-39  0.21866E-33
      82       16.2000  0.10000E+01  0.59121E-66  0.60684E-38  0.17304E-36  0.13145E-39  0.22083E-33
      84       16.6000  0.10000E+01  0.60123E-66  0.59177E-38  0.17510E-36  0.12866E-39  0.22213E-33
      86       17.0000  0.10000E+01  0.60964E-66  0.59961E-38  0.17645E-36  0.12513E-39  0.22255E-33
      88       17.4000  0.10000E+01  0.61414E-66  0.58329E-38  0.17721E-36  0.12300E-39  0.22210E-33
      90       17.8000  0.10000E+01  0.61607E-66  0.57644E-38  0.17728E-36  0.11781E-39  0.22079E-33
      92       18.2000  0.10000E+01  0.61601E-66  0.58355E-38  0.17669E-36  0.11156E-39  0.21865E-33
      94       18.6000  0.10000E+01  0.61401E-66  0.60451E-38  0.17553E-36  0.10621E-39  0.21570E-33
      96       19.0000  0.10000E+01  0.60928E-66  0.58569E-38  0.17367E-36  0.10006E-39  0.21199E-33
      98       19.4000  0.10000E+01  0.60279E-66  0.60508E-38  0.17124E-36  0.92907E-40  0.20756E-33
     100       19.8000  0.10000E+01  0.59310E-66  0.61217E-38  0.16827E-36  0.85895E-40  0.20249E-33
     102       20.2000  0.10000E+01  0.57644E-66  0.64555E-38  0.16483E-36  0.80527E-40  0.19684E-33
     104       20.6000  0.10000E+01  0.56144E-66  0.64441E-38  0.16081E-36  0.75267E-40  0.19068E-33
     106       21.0000  0.10000E+01  0.53908E-66  0.63931E-38  0.15639E-36  0.68210E-40  0.18409E-33
     108       21.4000  0.10000E+01  0.52132E-66  0.61612E-38  0.15184E-36  0.62806E-40  0.17717E-33
     110       21.8000  0.10000E+01  0.49144E-66  0.61146E-38  0.14706E-36  0.58464E-40  0.17000E-33
     112       22.2000  0.10000E+01  0.46392E-66  0.62450E-38  0.14209E-36  0.52780E-40  0.16269E-33
     114       22.6000  0.10000E+01  0.43624E-66  0.63237E-38  0.13704E-36  0.48084E-40  0.15534E-33
     116       23.0000  0.10000E+01  0.40917E-66  0.63686E-38  0.13165E-36  0.45197E-40  0.14804E-33
     118       23.4000  0.10000E+01  0.38047E-66  0.65572E-38  0.12641E-36  0.39472E-40  0.14091E-33
     120       23.8000  0.10000E+01  0.35666E-66  0.66785E-38  0.12120E-36  0.35782E-40  0.13404E-33
     122       24.2000  0.10000E+01  0.34417E-66  0.67498E-38  0.11626E-36  0.31141E-40  0.12753E-33
     124       24.6000  0.10000E+01  0.32364E-66  0.68529E-38  0.11177E-36  0.30274E-40  0.12149E-33
     126       25.0000  0.10000E+01  0.29711E-66  0.68324E-38  0.10760E-36  0.26523E-40  0.11601E-33
     128       25.4000  0.10000E+01  0.27703E-66  0.68584E-38  0.10378E-36  0.20976E-40  0.11117E-33
     130       25.8000  0.10000E+01  0.26395E-66  0.68530E-38  0.10053E-36  0.16601E-40  0.10707E-33
     132       26.2000  0.10000E+01  0.24698E-66  0.68416E-38  0.98108E-37  0.13131E-40  0.10378E-33
     134       26.6000  0.10000E+01  0.23025E-66  0.68298E-38  0.96376E-37  0.10834E-40  0.10137E-33
     136       27.0000  0.10000E+01  0.20143E-66  0.68103E-38  0.95301E-37  0.78824E-41  0.99906E-34
     138       27.4000  0.10000E+01  0.17461E-66  0.66629E-38  0.95146E-37  0.65167E-41  0.99432E-34
     140       27.8000  0.10000E+01  0.14816E-66  0.66789E-38  0.95885E-37  0.61090E-41  0.99992E-34
     142       28.2000  0.10000E+01  0.13050E-66  0.68149E-38  0.97528E-37  0.57022E-41  0.10162E-33
     144       28.6000  0.10000E+01  0.11584E-66  0.66987E-38  0.10019E-36  0.59444E-41  0.10433E-33
     146       29.0000  0.10000E+01  0.10583E-66  0.66184E-38  0.10398E-36  0.64414E-41  0.10813E-33
     148       29.4000  0.10000E+01  0.98785E-67  0.65465E-38  0.10896E-36  0.68269E-41  0.11303E-33
     150       29.8000  0.10000E+01  0.86984E-67  0.66598E-38  0.11523E-36  0.76192E-41  0.11900E-33
     152       30.2000  0.10000E+01  0.70890E-67  0.69540E-38  0.12242E-36  0.86269E-41  0.12601E-33
     154       30.6000  0.10000E+01  0.60723E-67  0.73649E-38  0.13069E-36  0.91737E-41  0.13404E-33
     156       31.0000  0.10000E+01  0.54193E-67  0.72550E-38  0.13944E-36  0.10355E-40  0.14303E-33
     158       31.4000  0.10000E+01  0.55878E-67  0.70732E-38  0.14922E-36  0.11957E-40  0.15291E-33
     160       31.8000  0.10000E+01  0.51195E-67  0.68631E-38  0.16011E-36  0.13389E-40  0.16363E-33
     162       32.2000  0.10000E+01  0.44196E-67  0.60083E-38  0.17147E-36  0.15741E-40  0.17510E-33
     164       32.6000  0.10000E+01  0.38729E-67  0.59700E-38  0.18338E-36  0.15930E-40  0.18723E-33
     166       33.0000  0.10000E+01  0.32099E-67  0.61781E-38  0.19679E-36  0.15976E-40  0.19992E-33
     168       33.4000  0.10000E+01  0.30814E-67  0.68209E-38  0.20949E-36  0.16541E-40  0.21308E-33
     170       33.8000  0.10000E+01  0.27141E-67  0.71312E-38  0.22309E-36  0.17355E-40  0.22658E-33
     172       34.2000  0.10000E+01  0.26362E-67  0.68237E-38  0.23762E-36  0.17425E-40  0.24033E-33
     174       34.6000  0.10000E+01  0.25797E-67  0.68894E-38  0.25150E-36  0.17725E-40  0.25419E-33
     176       35.0000  0.10000E+01  0.25052E-67  0.68904E-38  0.26538E-36  0.17709E-40  0.26805E-33
     178       35.4000  0.10000E+01  0.24915E-67  0.68364E-38  0.27973E-36  0.17809E-40  0.28179E-33
     180       35.8000  0.10000E+01  0.25696E-67  0.70102E-38  0.29435E-36  0.17842E-40  0.29528E-33
     182       36.2000  0.10000E+01  0.26516E-67  0.71262E-38  0.30787E-36  0.17827E-40  0.30841E-33
     184       36.6000  0.10000E+01  0.26528E-67  0.71022E-38  0.32083E-36  0.17669E-40  0.32105E-33
     186       37.0000  0.10000E+01  0.26962E-67  0.72252E-38  0.33383E-36  0.17016E-40  0.33310E-33
     188       37.4000  0.10000E+01  0.31001E-67  0.73425E-38  0.34591E-36  0.17140E-40  0.34445E-33
     190       37.8000  0.10000E+01  0.31736E-67  0.73210E-38  0.35694E-36  0.17340E-40  0.35498E-33
     192       38.2000  0.10000E+01  0.36114E-67  0.73098E-38  0.36744E-36  0.15741E-40  0.36461E-33
     194       38.6000  0.10000E+01  0.43509E-67  0.73036E-38  0.37727E-36  0.15353E-40  0.37325E-33
     196       39.0000  0.10000E+01  0.53082E-67  0.72951E-38  0.38612E-36  0.15117E-40  0.38083E-33
     198       39.4000  0.10000E+01  0.59585E-67  0.72167E-38  0.39340E-36  0.15883E-40  0.38726E-33
     200       39.8000  0.10000E+01  0.44845E-67  0.71853E-38  0.39962E-36  0.14564E-40  0.39251E-33
     202       40.2000  0.10000E+01  0.60942E-67  0.70248E-38  0.40463E-36  0.16434E-40  0.39652E-33
     204       40.6000  0.10000E+01  0.68402E-67  0.70520E-38  0.40825E-36  0.15848E-40  0.39926E-33
     206       41.0000  0.10000E+01  0.71415E-67  0.67696E-38  0.41051E-36  0.14382E-40  0.40071E-33
     208       41.4000  0.10000E+01  0.70569E-67  0.65546E-38  0.41161E-36  0.14772E-40  0.40086E-33
     210       41.8000  0.10000E+01  0.77232E-67  0.63858E-38  0.41152E-36  0.14760E-40  0.39973E-33
     212       42.2000  0.10000E+01  0.89556E-67  0.65645E-38  0.41024E-36  0.16910E-40  0.39732E-33
     214       42.6000  0.10000E+01  0.91756E-67  0.67527E-38  0.40787E-36  0.15064E-40  0.39368E-33
     216       43.0000  0.10000E+01  0.10183E-66  0.67372E-38  0.40430E-36  0.17700E-40  0.38883E-33
     218       43.4000  0.10000E+01  0.95800E-67  0.64046E-38  0.39986E-36  0.18472E-40  0.38285E-33
     220       43.8000  0.10000E+01  0.95227E-67  0.62470E-38  0.39383E-36  0.22359E-40  0.37580E-33
     222       44.2000  0.10000E+01  0.10260E-66  0.66966E-38  0.38663E-36  0.25015E-40  0.36776E-33
     224       44.6000  0.10000E+01  0.10699E-66  0.64295E-38  0.37889E-36  0.25600E-40  0.35882E-33
     226       45.0000  0.10000E+01  0.11907E-66  0.56597E-38  0.36962E-36  0.24597E-40  0.34907E-33
     228       45.4000  0.10000E+01  0.11861E-66  0.51603E-38  0.35976E-36  0.24187E-40  0.33863E-33
     230       45.8000  0.10000E+01  0.11772E-66  0.52586E-38  0.34917E-36  0.24400E-40  0.32761E-33
     232       46.2000  0.10000E+01  0.12272E-66  0.51130E-38  0.33806E-36  0.25282E-40  0.31613E-33
     234       46.6000  0.10000E+01  0.12169E-66  0.47960E-38  0.32697E-36  0.25702E-40  0.30432E-33
     236       47.0000  0.10000E+01  0.12074E-66  0.42117E-38  0.31494E-36  0.23541E-40  0.29230E-33
     238       47.4000  0.10000E+01  0.12338E-66  0.39178E-38  0.30291E-36  0.23733E-40  0.28022E-33
     240       47.8000  0.10000E+01  0.12705E-66  0.38398E-38  0.29040E-36  0.23785E-40  0.26820E-33
     242       48.2000  0.10000E+01  0.12780E-66  0.35630E-38  0.27852E-36  0.23102E-40  0.25638E-33
     244       48.6000  0.10000E+01  0.12819E-66  0.32493E-38  0.26669E-36  0.23068E-40  0.24488E-33
     246       49.0000  0.10000E+01  0.13000E-66  0.30905E-38  0.25507E-36  0.23179E-40  0.23385E-33
     248       49.4000  0.10000E+01  0.12697E-66  0.32773E-38  0.24380E-36  0.23186E-40  0.22339E-33
     250       49.8000  0.10000E+01  0.12515E-66  0.31435E-38  0.23416E-36  0.23166E-40  0.21364E-33
     252       50.2000  0.10000E+01  0.12493E-66  0.31249E-38  0.22509E-36  0.23466E-40  0.20469E-33
     254       50.6000  0.10000E+01  0.12004E-66  0.30726E-38  0.21655E-36  0.24416E-40  0.19667E-33
     256       51.0000  0.10000E+01  0.11596E-66  0.30273E-38  0.20950E-36  0.23680E-40  0.18966E-33
     258       51.4000  0.10000E+01  0.10797E-66  0.30255E-38  0.20310E-36  0.23049E-40  0.18374E-33
     260       51.8000  0.10000E+01  0.10193E-66  0.30605E-38  0.19752E-36  0.22371E-40  0.17900E-33
     262       52.2000  0.10000E+01  0.10343E-66  0.31269E-38  0.19322E-36  0.20319E-40  0.17548E-33
     264       52.6000  0.10000E+01  0.99243E-67  0.33805E-38  0.19019E-36  0.17022E-40  0.17326E-33
     266       53.0000  0.10000E+01  0.86713E-67  0.33510E-38  0.18830E-36  0.16857E-40  0.17235E-33
     268       53.4000  0.10000E+01  0.79750E-67  0.34162E-38  0.18735E-36  0.15884E-40  0.17278E-33
     270       53.8000  0.10000E+01  0.72628E-67  0.35850E-38  0.18743E-36  0.14571E-40  0.17457E-33
     272       54.2000  0.10000E+01  0.63054E-67  0.38150E-38  0.18872E-36  0.12187E-40  0.17770E-33
     274       54.6000  0.10000E+01  0.54978E-67  0.42195E-38  0.19092E-36  0.12463E-40  0.18216E-33
     276       55.0000  0.10000E+01  0.46378E-67  0.44920E-38  0.19402E-36  0.12284E-40  0.18793E-33
     278       55.4000  0.10000E+01  0.50442E-67  0.46177E-38  0.19814E-36  0.10595E-40  0.19495E-33
     280       55.8000  0.10000E+01  0.36887E-67  0.51345E-38  0.20295E-36  0.11417E-40  0.20316E-33
     282       56.2000  0.10000E+01  0.29522E-67  0.54412E-38  0.20835E-36  0.10832E-40  0.21250E-33
     284       56.6000  0.10000E+01  0.27525E-67  0.59197E-38  0.21461E-36  0.10124E-40  0.22288E-33
     286       57.0000  0.10000E+01  0.12324E-67  0.65983E-38  0.22149E-36  0.58544E-41  0.23422E-33
     288       57.4000  0.10000E+01  0.57277E-68  0.70362E-38  0.22928E-36  0.48452E-41  0.24640E-33
     290       57.8000  0.10000E+01  0.99467E-69  0.77607E-38  0.23711E-36  0.37598E-41  0.25932E-33
     292       58.2000  0.10000E+01  0.42893E-69  0.77467E-38  0.24538E-36  0.49240E-41  0.27286E-33
     294       58.6000  0.10000E+01  0.11723E-68  0.82437E-38  0.25388E-36  0.40338E-41  0.28689E-33
     296       59.0000  0.10000E+01  0.26384E-68  0.86452E-38  0.26247E-36  0.21336E-41  0.30127E-33
     298       59.4000  0.10000E+01  0.43030E-68  0.88720E-38  0.27143E-36  0.18932E-41  0.31587E-33
     300       59.8000  0.10000E+01  0.62404E-68  0.87375E-38  0.28027E-36  0.19233E-41  0.33056E-33
     302       60.2000  0.10000E+01  0.98681E-68  0.89546E-38  0.28890E-36  0.25051E-41  0.34519E-33
     304       60.6000  0.10000E+01  0.11309E-67  0.91673E-38  0.29763E-36  0.32301E-41  0.35962E-33
     306       61.0000  0.10000E+01  0.19525E-67  0.94825E-38  0.30591E-36  0.31762E-41  0.37372E-33
     308       61.4000  0.10000E+01  0.19189E-67  0.10172E-37  0.31412E-36  0.43779E-41  0.38735E-33
     310       61.8000  0.10000E+01  0.24965E-67  0.10904E-37  0.32186E-36  0.31417E-41  0.40037E-33
     312       62.2000  0.10000E+01  0.31413E-67  0.11099E-37  0.32892E-36  0.39674E-41  0.41267E-33
     314       62.6000  0.10000E+01  0.40044E-67  0.11607E-37  0.33523E-36  0.37521E-41  0.42412E-33
     316       63.0000  0.10000E+01  0.41974E-67  0.11952E-37  0.34125E-36  0.44521E-41  0.43461E-33
     318       63.4000  0.10000E+01  0.44730E-67  0.12145E-37  0.34649E-36  0.55489E-41  0.44405E-33
     320       63.8000  0.10000E+01  0.58544E-67  0.12285E-37  0.35131E-36  0.84627E-41  0.45235E-33
     322       64.2000  0.10000E+01  0.72745E-67  0.12339E-37  0.35517E-36  0.88741E-41  0.45941E-33
     324       64.6000  0.10000E+01  0.79016E-67  0.12386E-37  0.35792E-36  0.74904E-41  0.46518E-33
     326       65.0000  0.10000E+01  0.10590E-66  0.12371E-37  0.35978E-36  0.83433E-41  0.46960E-33
     328       65.4000  0.10000E+01  0.11203E-66  0.12361E-37  0.36074E-36  0.94438E-41  0.47264E-33
     330       65.8000  0.10000E+01  0.12075E-66  0.12181E-37  0.36078E-36  0.10183E-40  0.47425E-33
     332       66.2000  0.10000E+01  0.14040E-66  0.11858E-37  0.35994E-36  0.12068E-40  0.47444E-33
     334       66.6000  0.10000E+01  0.15098E-66  0.11678E-37  0.35822E-36  0.13173E-40  0.47320E-33
     336       67.0000  0.10000E+01  0.17302E-66  0.11252E-37  0.35545E-36  0.15049E-40  0.47054E-33
     338       67.4000  0.10000E+01  0.18665E-66  0.10830E-37  0.35172E-36  0.15764E-40  0.46651E-33
     340       67.8000  0.10000E+01  0.20884E-66  0.10457E-37  0.34707E-36  0.15283E-40  0.46113E-33
     342       68.2000  0.10000E+01  0.22729E-66  0.98891E-38  0.34191E-36  0.15047E-40  0.45447E-33
     344       68.6000  0.10000E+01  0.24858E-66  0.95745E-38  0.33587E-36  0.16774E-40  0.44659E-33
     346       69.0000  0.10000E+01  0.27069E-66  0.91639E-38  0.32866E-36  0.17179E-40  0.43759E-33
     348       69.4000  0.10000E+01  0.29259E-66  0.87670E-38  0.32137E-36  0.17885E-40  0.42754E-33
     350       69.8000  0.10000E+01  0.31508E-66  0.78950E-38  0.31317E-36  0.18419E-40  0.41657E-33
     352       70.2000  0.10000E+01  0.32725E-66  0.74156E-38  0.30417E-36  0.18900E-40  0.40477E-33
     354       70.6000  0.10000E+01  0.34823E-66  0.64861E-38  0.29528E-36  0.19944E-40  0.39228E-33
     356       71.0000  0.10000E+01  0.36980E-66  0.56595E-38  0.28527E-36  0.20622E-40  0.37922E-33
     358       71.4000  0.10000E+01  0.38414E-66  0.49709E-38  0.27559E-36  0.23156E-40  0.36573E-33
     360       71.8000  0.10000E+01  0.39695E-66  0.43094E-38  0.26591E-36  0.24125E-40  0.35194E-33
     362       72.2000  0.10000E+01  0.40955E-66  0.36400E-38  0.25619E-36  0.25490E-40  0.33800E-33
     364       72.6000  0.10000E+01  0.41028E-66  0.28167E-38  0.24610E-36  0.26224E-40  0.32405E-33
     366       73.0000  0.10000E+01  0.42377E-66  0.21846E-38  0.23641E-36  0.26701E-40  0.31024E-33
     368       73.4000  0.10000E+01  0.43386E-66  0.18814E-38  0.22639E-36  0.26549E-40  0.29671E-33
     370       73.8000  0.10000E+01  0.44016E-66  0.15204E-38  0.21623E-36  0.26759E-40  0.28360E-33
     372       74.2000  0.10000E+01  0.44350E-66  0.10807E-38  0.20637E-36  0.26751E-40  0.27104E-33
     374       74.6000  0.10000E+01  0.45053E-66  0.64263E-39  0.19716E-36  0.26527E-40  0.25918E-33
     376       75.0000  0.10000E+01  0.45572E-66  0.33352E-39  0.18789E-36  0.26219E-40  0.24812E-33
     378       75.4000  0.10000E+01  0.46261E-66  0.18431E-39  0.17946E-36  0.26192E-40  0.23799E-33
     380       75.8000  0.10000E+01  0.47076E-66  0.56380E-40  0.17235E-36  0.26510E-40  0.22890E-33
     382       76.2000  0.10000E+01  0.48161E-66  0.25659E-40  0.16567E-36  0.25641E-40  0.22093E-33
     384       76.6000  0.10000E+01  0.49646E-66  0.29673E-40  0.15978E-36  0.24274E-40  0.21418E-33
     386       77.0000  0.10000E+01  0.50868E-66  0.39709E-40  0.15502E-36  0.24684E-40  0.20872E-33
     388       77.4000  0.10000E+01  0.51678E-66  0.81748E-40  0.15104E-36  0.25301E-40  0.20460E-33
     390       77.8000  0.10000E+01  0.52233E-66  0.16409E-39  0.14798E-36  0.21818E-40  0.20188E-33
     392       78.2000  0.10000E+01  0.53138E-66  0.25515E-39  0.14599E-36  0.17049E-40  0.20059E-33
