#   istep time (au) <H(t)>-E_gs(0) DE_vac(t) DG_eq(t) DG_neq(t)  Const  Rad. Int  Rad. Ene
       1        0.0000     -0.24464448E-03     -0.14196202E-12     -0.12232224E-03     -0.11356792E-03     -0.14196202E-12      0.00000000E+00      0.00000000E+00
       2        0.2000     -0.50469483E-03     -0.24464448E-03     -0.37466966E-03     -0.35821240E-03     -0.24464448E-03      0.00000000E+00      0.00000000E+00
       4        0.6000     -0.29046598E-03     -0.16777503E-12     -0.14523299E-03     -0.11356792E-03     -0.16777736E-12      0.00000000E+00      0.00000000E+00
       6        1.0000     -0.32036102E-03     -0.18454698E-12     -0.16018051E-03     -0.11356792E-03     -0.18454856E-12      0.00000000E+00      0.00000000E+00
       8        1.4000     -0.34974438E-03     -0.20097671E-12     -0.17487219E-03     -0.11356792E-03     -0.20097595E-12      0.00000000E+00      0.00000000E+00
      10        1.8000     -0.37862481E-03     -0.21707300E-12     -0.18931241E-03     -0.11356792E-03     -0.21707197E-12      0.00000000E+00      0.00000000E+00
      12        2.2000     -0.40701093E-03     -0.23284266E-12     -0.20350547E-03     -0.11356792E-03     -0.23284223E-12      0.00000000E+00      0.00000000E+00
      14        2.6000     -0.43491121E-03     -0.24829211E-12     -0.21745560E-03     -0.11356792E-03     -0.24829287E-12      0.00000000E+00      0.00000000E+00
      16        3.0000     -0.46233395E-03     -0.26342876E-12     -0.23116697E-03     -0.11356792E-03     -0.26342882E-12      0.00000000E+00      0.00000000E+00
      18        3.4000     -0.48928733E-03     -0.27825919E-12     -0.24464367E-03     -0.11356792E-03     -0.27825778E-12      0.00000000E+00      0.00000000E+00
      20        3.8000     -0.51577940E-03     -0.29278934E-12     -0.25788970E-03     -0.11356792E-03     -0.29278663E-12      0.00000000E+00      0.00000000E+00
      22        4.2000     -0.54181804E-03     -0.30702654E-12     -0.27090902E-03     -0.11356792E-03     -0.30702036E-12      0.00000000E+00      0.00000000E+00
      24        4.6000     -0.56741101E-03     -0.32097654E-12     -0.28370551E-03     -0.11356792E-03     -0.32097187E-12      0.00000000E+00      0.00000000E+00
      26        5.0000     -0.59256595E-03     -0.33464540E-12     -0.29628298E-03     -0.11356792E-03     -0.33463943E-12      0.00000000E+00      0.00000000E+00
      28        5.4000     -0.61729036E-03     -0.34803790E-12     -0.30864518E-03     -0.11356792E-03     -0.34803356E-12      0.00000000E+00      0.00000000E+00
      30        5.8000     -0.64159161E-03     -0.36116249E-12     -0.32079581E-03     -0.11356792E-03     -0.36115761E-12      0.00000000E+00      0.00000000E+00
      32        6.2000     -0.66547694E-03     -0.37402438E-12     -0.33273847E-03     -0.11356792E-03     -0.37402221E-12      0.00000000E+00      0.00000000E+00
      34        6.6000     -0.68895346E-03     -0.38662519E-12     -0.34447673E-03     -0.11356792E-03     -0.38662422E-12      0.00000000E+00      0.00000000E+00
      36        7.0000     -0.71202819E-03     -0.39897664E-12     -0.35601409E-03     -0.11356792E-03     -0.39897350E-12      0.00000000E+00      0.00000000E+00
      38        7.4000     -0.73470799E-03     -0.41107959E-12     -0.36735400E-03     -0.11356792E-03     -0.41107677E-12      0.00000000E+00      0.00000000E+00
      40        7.8000     -0.75699963E-03     -0.42294055E-12     -0.37849982E-03     -0.11356792E-03     -0.42293773E-12      0.00000000E+00      0.00000000E+00
      42        8.2000     -0.77890976E-03     -0.43456308E-12     -0.38945488E-03     -0.11356792E-03     -0.43456048E-12      0.00000000E+00      0.00000000E+00
      44        8.6000     -0.80044489E-03     -0.44595545E-12     -0.40022245E-03     -0.11356792E-03     -0.44595751E-12      0.00000000E+00      0.00000000E+00
      46        9.0000     -0.82161146E-03     -0.45712067E-12     -0.41080573E-03     -0.11356792E-03     -0.45712099E-12      0.00000000E+00      0.00000000E+00
      48        9.4000     -0.84241578E-03     -0.46806341E-12     -0.42120789E-03     -0.11356792E-03     -0.46805994E-12      0.00000000E+00      0.00000000E+00
      50        9.8000     -0.86286403E-03     -0.47878737E-12     -0.43143202E-03     -0.11356792E-03     -0.47878520E-12      0.00000000E+00      0.00000000E+00
      52       10.2000     -0.88296233E-03     -0.48929914E-12     -0.44148116E-03     -0.11356792E-03     -0.48929892E-12      0.00000000E+00      0.00000000E+00
      54       10.6000     -0.90271665E-03     -0.49960199E-12     -0.45135832E-03     -0.11356792E-03     -0.49960014E-12      0.00000000E+00      0.00000000E+00
      56       11.0000     -0.92213289E-03     -0.50970057E-12     -0.46106645E-03     -0.11356792E-03     -0.50970068E-12      0.00000000E+00      0.00000000E+00
      58       11.4000     -0.94121684E-03     -0.51960096E-12     -0.47060842E-03     -0.11356792E-03     -0.51959825E-12      0.00000000E+00      0.00000000E+00
      60       11.8000     -0.95997418E-03     -0.52930338E-12     -0.47998709E-03     -0.11356792E-03     -0.52930154E-12      0.00000000E+00      0.00000000E+00
      62       12.2000     -0.97841050E-03     -0.53881530E-12     -0.48920525E-03     -0.11356792E-03     -0.53881595E-12      0.00000000E+00      0.00000000E+00
      64       12.6000     -0.99653130E-03     -0.54813901E-12     -0.49826565E-03     -0.11356792E-03     -0.54812925E-12      0.00000000E+00      0.00000000E+00
      66       13.0000     -0.10143420E-02     -0.55728078E-12     -0.50717099E-03     -0.11356792E-03     -0.55727450E-12      0.00000000E+00      0.00000000E+00
      68       13.4000     -0.10318479E-02     -0.56623825E-12     -0.51592393E-03     -0.11356792E-03     -0.56623955E-12      0.00000000E+00      0.00000000E+00
      70       13.8000     -0.10490541E-02     -0.57502202E-12     -0.52452707E-03     -0.11356792E-03     -0.57502592E-12      0.00000000E+00      0.00000000E+00
      72       14.2000     -0.10659659E-02     -0.58363427E-12     -0.53298298E-03     -0.11356792E-03     -0.58364359E-12      0.00000000E+00      0.00000000E+00
      74       14.6000     -0.10825883E-02     -0.59207522E-12     -0.54129417E-03     -0.11356792E-03     -0.59208714E-12      0.00000000E+00      0.00000000E+00
      76       15.0000     -0.10989263E-02     -0.60035527E-12     -0.54946313E-03     -0.11356792E-03     -0.60038107E-12      0.00000000E+00      0.00000000E+00
      78       15.4000     -0.11149846E-02     -0.60846532E-12     -0.55749229E-03     -0.11356792E-03     -0.60849524E-12      0.00000000E+00      0.00000000E+00
      80       15.8000     -0.11307681E-02     -0.61642401E-12     -0.56538404E-03     -0.11356792E-03     -0.61644505E-12      0.00000000E+00      0.00000000E+00
      82       16.2000     -0.11462815E-02     -0.62422203E-12     -0.57314074E-03     -0.11356792E-03     -0.62425043E-12      0.00000000E+00      0.00000000E+00
      84       16.6000     -0.11615294E-02     -0.63187129E-12     -0.58076469E-03     -0.11356792E-03     -0.63189601E-12      0.00000000E+00      0.00000000E+00
      86       17.0000     -0.11765163E-02     -0.63937419E-12     -0.58825817E-03     -0.11356792E-03     -0.63939132E-12      0.00000000E+00      0.00000000E+00
      88       17.4000     -0.11912468E-02     -0.64672551E-12     -0.59562342E-03     -0.11356792E-03     -0.64674633E-12      0.00000000E+00      0.00000000E+00
      90       17.8000     -0.12057252E-02     -0.65393589E-12     -0.60286262E-03     -0.11356792E-03     -0.65395953E-12      0.00000000E+00      0.00000000E+00
      92       18.2000     -0.12199559E-02     -0.66100532E-12     -0.60997793E-03     -0.11356792E-03     -0.66103828E-12      0.00000000E+00      0.00000000E+00
      94       18.6000     -0.12339430E-02     -0.66793879E-12     -0.61697148E-03     -0.11356792E-03     -0.66796612E-12      0.00000000E+00      0.00000000E+00
      96       19.0000     -0.12476907E-02     -0.67473869E-12     -0.62384535E-03     -0.11356792E-03     -0.67476125E-12      0.00000000E+00      0.00000000E+00
      98       19.4000     -0.12612032E-02     -0.68140524E-12     -0.63060159E-03     -0.11356792E-03     -0.68142453E-12      0.00000000E+00      0.00000000E+00
     100       19.8000     -0.12744844E-02     -0.68794319E-12     -0.63724221E-03     -0.11356792E-03     -0.68796769E-12      0.00000000E+00      0.00000000E+00
     102       20.2000     -0.12875384E-02     -0.69435365E-12     -0.64376919E-03     -0.11356792E-03     -0.69437294E-12      0.00000000E+00      0.00000000E+00
     104       20.6000     -0.13003690E-02     -0.70064505E-12     -0.65018448E-03     -0.11356792E-03     -0.70065329E-12      0.00000000E+00      0.00000000E+00
     106       21.0000     -0.13129800E-02     -0.70680939E-12     -0.65648998E-03     -0.11356792E-03     -0.70682154E-12      0.00000000E+00      0.00000000E+00
     108       21.4000     -0.13253752E-02     -0.71285903E-12     -0.66268758E-03     -0.11356792E-03     -0.71286748E-12      0.00000000E+00      0.00000000E+00
     110       21.8000     -0.13375583E-02     -0.71879286E-12     -0.66877913E-03     -0.11356792E-03     -0.71879416E-12      0.00000000E+00      0.00000000E+00
     112       22.2000     -0.13495329E-02     -0.72461243E-12     -0.67476643E-03     -0.11356792E-03     -0.72461763E-12      0.00000000E+00      0.00000000E+00
     114       22.6000     -0.13613026E-02     -0.73031707E-12     -0.68065128E-03     -0.11356792E-03     -0.73032162E-12      0.00000000E+00      0.00000000E+00
     116       23.0000     -0.13728708E-02     -0.73591437E-12     -0.68643542E-03     -0.11356792E-03     -0.73592261E-12      0.00000000E+00      0.00000000E+00
     118       23.4000     -0.13842412E-02     -0.74140563E-12     -0.69212058E-03     -0.11356792E-03     -0.74142493E-12      0.00000000E+00      0.00000000E+00
     120       23.8000     -0.13954169E-02     -0.74678826E-12     -0.69770846E-03     -0.11356792E-03     -0.74681906E-12      0.00000000E+00      0.00000000E+00
     122       24.2000     -0.14064014E-02     -0.75207071E-12     -0.70320072E-03     -0.11356792E-03     -0.75210281E-12      0.00000000E+00      0.00000000E+00
     124       24.6000     -0.14171980E-02     -0.75725407E-12     -0.70859899E-03     -0.11356792E-03     -0.75729093E-12      0.00000000E+00      0.00000000E+00
     126       25.0000     -0.14278098E-02     -0.76233703E-12     -0.71390489E-03     -0.11356792E-03     -0.76236435E-12      0.00000000E+00      0.00000000E+00
     128       25.4000     -0.14382400E-02     -0.76732392E-12     -0.71912000E-03     -0.11356792E-03     -0.76735038E-12      0.00000000E+00      0.00000000E+00
     130       25.8000     -0.14484917E-02     -0.77221736E-12     -0.72424586E-03     -0.11356792E-03     -0.77222929E-12      0.00000000E+00      0.00000000E+00
     132       26.2000     -0.14585680E-02     -0.77701734E-12     -0.72928402E-03     -0.11356792E-03     -0.77702796E-12      0.00000000E+00      0.00000000E+00
     134       26.6000     -0.14684719E-02     -0.78172429E-12     -0.73423596E-03     -0.11356792E-03     -0.78172972E-12      0.00000000E+00      0.00000000E+00
     136       27.0000     -0.14782063E-02     -0.78634365E-12     -0.73910317E-03     -0.11356792E-03     -0.78635644E-12      0.00000000E+00      0.00000000E+00
     138       27.4000     -0.14877742E-02     -0.79087474E-12     -0.74388709E-03     -0.11356792E-03     -0.79088754E-12      0.00000000E+00      0.00000000E+00
     140       27.8000     -0.14971783E-02     -0.79531889E-12     -0.74858915E-03     -0.11356792E-03     -0.79534274E-12      0.00000000E+00      0.00000000E+00
     142       28.2000     -0.15064215E-02     -0.79968215E-12     -0.75321075E-03     -0.11356792E-03     -0.79969907E-12      0.00000000E+00      0.00000000E+00
     144       28.6000     -0.15155065E-02     -0.80396020E-12     -0.75775327E-03     -0.11356792E-03     -0.80398297E-12      0.00000000E+00      0.00000000E+00
     146       29.0000     -0.15244361E-02     -0.80816083E-12     -0.76221807E-03     -0.11356792E-03     -0.80818989E-12      0.00000000E+00      0.00000000E+00
     148       29.4000     -0.15332129E-02     -0.81227971E-12     -0.76660646E-03     -0.11356792E-03     -0.81231181E-12      0.00000000E+00      0.00000000E+00
     150       29.8000     -0.15418395E-02     -0.81632552E-12     -0.77091977E-03     -0.11356792E-03     -0.81635805E-12      0.00000000E+00      0.00000000E+00
     152       30.2000     -0.15503185E-02     -0.82029218E-12     -0.77515927E-03     -0.11356792E-03     -0.82031278E-12      0.00000000E+00      0.00000000E+00
     154       30.6000     -0.15586524E-02     -0.82418360E-12     -0.77932622E-03     -0.11356792E-03     -0.82420767E-12      0.00000000E+00      0.00000000E+00
     156       31.0000     -0.15668438E-02     -0.82800281E-12     -0.78342188E-03     -0.11356792E-03     -0.82802818E-12      0.00000000E+00      0.00000000E+00
     158       31.4000     -0.15748949E-02     -0.83175220E-12     -0.78744746E-03     -0.11356792E-03     -0.83177887E-12      0.00000000E+00      0.00000000E+00
     160       31.8000     -0.15828083E-02     -0.83543047E-12     -0.79140416E-03     -0.11356792E-03     -0.83545844E-12      0.00000000E+00      0.00000000E+00
     162       32.2000     -0.15905863E-02     -0.83904194E-12     -0.79529316E-03     -0.11356792E-03     -0.83906840E-12      0.00000000E+00      0.00000000E+00
     164       32.6000     -0.15982312E-02     -0.84258468E-12     -0.79911561E-03     -0.11356792E-03     -0.84260875E-12      0.00000000E+00      0.00000000E+00
     166       33.0000     -0.16057453E-02     -0.84606042E-12     -0.80287266E-03     -0.11356792E-03     -0.84608601E-12      0.00000000E+00      0.00000000E+00
     168       33.4000     -0.16131308E-02     -0.84947262E-12     -0.80656542E-03     -0.11356792E-03     -0.84949365E-12      0.00000000E+00      0.00000000E+00
     170       33.8000     -0.16203900E-02     -0.85282150E-12     -0.81019500E-03     -0.11356792E-03     -0.85283625E-12      0.00000000E+00      0.00000000E+00
     172       34.2000     -0.16275250E-02     -0.85610729E-12     -0.81376248E-03     -0.11356792E-03     -0.85612203E-12      0.00000000E+00      0.00000000E+00
     174       34.6000     -0.16345378E-02     -0.85933517E-12     -0.81726892E-03     -0.11356792E-03     -0.85935317E-12      0.00000000E+00      0.00000000E+00
     176       35.0000     -0.16414307E-02     -0.86250083E-12     -0.82071536E-03     -0.11356792E-03     -0.86251535E-12      0.00000000E+00      0.00000000E+00
     178       35.4000     -0.16482057E-02     -0.86560837E-12     -0.82410283E-03     -0.11356792E-03     -0.86563027E-12      0.00000000E+00      0.00000000E+00
     180       35.8000     -0.16548647E-02     -0.86865628E-12     -0.82743234E-03     -0.11356792E-03     -0.86868403E-12      0.00000000E+00      0.00000000E+00
     182       36.2000     -0.16614098E-02     -0.87165691E-12     -0.83070489E-03     -0.11356792E-03     -0.87167881E-12      0.00000000E+00      0.00000000E+00
     184       36.6000     -0.16678429E-02     -0.87459228E-12     -0.83392144E-03     -0.11356792E-03     -0.87462763E-12      0.00000000E+00      0.00000000E+00
     186       37.0000     -0.16741659E-02     -0.87747886E-12     -0.83708296E-03     -0.11356792E-03     -0.87751963E-12      0.00000000E+00      0.00000000E+00
     188       37.4000     -0.16803808E-02     -0.88031036E-12     -0.84019038E-03     -0.11356792E-03     -0.88034506E-12      0.00000000E+00      0.00000000E+00
     190       37.8000     -0.16864893E-02     -0.88309134E-12     -0.84324464E-03     -0.11356792E-03     -0.88312474E-12      0.00000000E+00      0.00000000E+00
     192       38.2000     -0.16924933E-02     -0.88581920E-12     -0.84624664E-03     -0.11356792E-03     -0.88584890E-12      0.00000000E+00      0.00000000E+00
     194       38.6000     -0.16983946E-02     -0.88849696E-12     -0.84919728E-03     -0.11356792E-03     -0.88852298E-12      0.00000000E+00      0.00000000E+00
     196       39.0000     -0.17041949E-02     -0.89112810E-12     -0.85209744E-03     -0.11356792E-03     -0.89115434E-12      0.00000000E+00      0.00000000E+00
     198       39.4000     -0.17098959E-02     -0.89371132E-12     -0.85494797E-03     -0.11356792E-03     -0.89373691E-12      0.00000000E+00      0.00000000E+00
     200       39.8000     -0.17154995E-02     -0.89624684E-12     -0.85774974E-03     -0.11356792E-03     -0.89626592E-12      0.00000000E+00      0.00000000E+00
     202       40.2000     -0.17210071E-02     -0.89873486E-12     -0.86050356E-03     -0.11356792E-03     -0.89875178E-12      0.00000000E+00      0.00000000E+00
     204       40.6000     -0.17264206E-02     -0.90117562E-12     -0.86321028E-03     -0.11356792E-03     -0.90118928E-12      0.00000000E+00      0.00000000E+00
     206       41.0000     -0.17317414E-02     -0.90357778E-12     -0.86587068E-03     -0.11356792E-03     -0.90358862E-12      0.00000000E+00      0.00000000E+00
     208       41.4000     -0.17369711E-02     -0.90593418E-12     -0.86848557E-03     -0.11356792E-03     -0.90594481E-12      0.00000000E+00      0.00000000E+00
     210       41.8000     -0.17421114E-02     -0.90824288E-12     -0.87105572E-03     -0.11356792E-03     -0.90825980E-12      0.00000000E+00      0.00000000E+00
     212       42.2000     -0.17471638E-02     -0.91051667E-12     -0.87358190E-03     -0.11356792E-03     -0.91052773E-12      0.00000000E+00      0.00000000E+00
     214       42.6000     -0.17521297E-02     -0.91274753E-12     -0.87606486E-03     -0.11356792E-03     -0.91275230E-12      0.00000000E+00      0.00000000E+00
     216       43.0000     -0.17570107E-02     -0.91493718E-12     -0.87850533E-03     -0.11356792E-03     -0.91494542E-12      0.00000000E+00      0.00000000E+00
     218       43.4000     -0.17618081E-02     -0.91708542E-12     -0.88090406E-03     -0.11356792E-03     -0.91710168E-12      0.00000000E+00      0.00000000E+00
     220       43.8000     -0.17665235E-02     -0.91919940E-12     -0.88326175E-03     -0.11356792E-03     -0.91921934E-12      0.00000000E+00      0.00000000E+00
     222       44.2000     -0.17711582E-02     -0.92126870E-12     -0.88557910E-03     -0.11356792E-03     -0.92129863E-12      0.00000000E+00      0.00000000E+00
     224       44.6000     -0.17757136E-02     -0.92330635E-12     -0.88785680E-03     -0.11356792E-03     -0.92332760E-12      0.00000000E+00      0.00000000E+00
     226       45.0000     -0.17801911E-02     -0.92530606E-12     -0.89009554E-03     -0.11356792E-03     -0.92533446E-12      0.00000000E+00      0.00000000E+00
     228       45.4000     -0.17845919E-02     -0.92726976E-12     -0.89229597E-03     -0.11356792E-03     -0.92729622E-12      0.00000000E+00      0.00000000E+00
     230       45.8000     -0.17889175E-02     -0.92919856E-12     -0.89445876E-03     -0.11356792E-03     -0.92922653E-12      0.00000000E+00      0.00000000E+00
     232       46.2000     -0.17931691E-02     -0.93109244E-12     -0.89658455E-03     -0.11356792E-03     -0.93112150E-12      0.00000000E+00      0.00000000E+00
     234       46.6000     -0.17973480E-02     -0.93295293E-12     -0.89867398E-03     -0.11356792E-03     -0.93298698E-12      0.00000000E+00      0.00000000E+00
     236       47.0000     -0.18014553E-02     -0.93477786E-12     -0.90072765E-03     -0.11356792E-03     -0.93482145E-12      0.00000000E+00      0.00000000E+00
     238       47.4000     -0.18054924E-02     -0.93657374E-12     -0.90274619E-03     -0.11356792E-03     -0.93661754E-12      0.00000000E+00      0.00000000E+00
     240       47.8000     -0.18094604E-02     -0.93833405E-12     -0.90473020E-03     -0.11356792E-03     -0.93838370E-12      0.00000000E+00      0.00000000E+00
     242       48.2000     -0.18133605E-02     -0.94006617E-12     -0.90668027E-03     -0.11356792E-03     -0.94011582E-12      0.00000000E+00      0.00000000E+00
