 # step  time  dipole  field  qtot  qtot0
       1        0.00      0.3835471064E-19      0.4589859783E-19     -0.6392039989E-04     -0.5909235754E-04
       2        0.20      0.3848705954E-19      0.4767207306E-19     -0.6794427423E-04     -0.6312092770E-04
       4        0.60      0.3658123541E-19      0.5209252626E-19     -0.7588830823E-04     -0.7107467907E-04
       6        1.00      0.3515186731E-19      0.5624828165E-19     -0.8369603476E-04     -0.7889254257E-04
       8        1.40      0.3271664759E-19      0.6003346014E-19     -0.9136979262E-04     -0.8657683980E-04
      10        1.80      0.3160491684E-19      0.6421568531E-19     -0.9891188053E-04     -0.9412985271E-04
      12        2.20      0.3038730698E-19      0.6802733358E-19     -0.1063245577E-03     -0.1015538243E-03
      14        2.60      0.2964615315E-19      0.7146840492E-19     -0.1136100447E-03     -0.1088509591E-03
      16        3.00      0.2853442241E-19      0.7448595980E-19     -0.1207705239E-03     -0.1160234242E-03
      18        3.40      0.2816384550E-19      0.7895935255E-19     -0.1278081402E-03     -0.1230733495E-03
      20        3.80      0.2710505431E-19      0.8247983324E-19     -0.1347250017E-03     -0.1300028286E-03
      22        4.20      0.2451101591E-19      0.8745615180E-19     -0.1415231805E-03     -0.1368139192E-03
      24        4.60      0.2414043900E-19      0.8994431109E-19     -0.1482047129E-03     -0.1435086440E-03
      26        5.00      0.2390221098E-19      0.9529120657E-19     -0.1547716005E-03     -0.1500889912E-03
      28        5.40      0.2392868076E-19      0.9910285483E-19     -0.1612258102E-03     -0.1565569147E-03
      30        5.80      0.2313458737E-19      0.1012204372E-18     -0.1675692756E-03     -0.1629143353E-03
      32        6.20      0.2271107090E-19      0.1075202447E-18     -0.1738038969E-03     -0.1691631410E-03
      34        6.60      0.2223461487E-19      0.1099025249E-18     -0.1799315415E-03     -0.1753051874E-03
      36        7.00      0.2096406544E-19      0.1141376896E-18     -0.1859540451E-03     -0.1813422984E-03
      38        7.40      0.1905824131E-19      0.1183728544E-18     -0.1918732118E-03     -0.1872762669E-03
      40        7.80      0.1757593366E-19      0.1204904367E-18     -0.1976908146E-03     -0.1931088550E-03
      42        8.20      0.1567010952E-19      0.1253608762E-18     -0.2034085962E-03     -0.1988417948E-03
      44        8.60      0.1376428539E-19      0.1283254915E-18     -0.2090282695E-03     -0.2044767887E-03
      46        9.00      0.1270549421E-19      0.1323488980E-18     -0.2145515177E-03     -0.2100155102E-03
      48        9.40      0.8682087709E-20      0.1342547221E-18     -0.2199799954E-03     -0.2154596039E-03
      50        9.80      0.8470329473E-20      0.1369281699E-18     -0.2253153288E-03     -0.2208106867E-03
      52       10.20      0.7146840492E-20      0.1391251616E-18     -0.2305591160E-03     -0.2260703475E-03
      54       10.60      0.7517417407E-20      0.1420368373E-18     -0.2357129278E-03     -0.2312401483E-03
      56       11.00      0.4235164736E-20      0.1442073593E-18     -0.2407783080E-03     -0.2363216244E-03
      58       11.40      0.2117582368E-20      0.1469602163E-18     -0.2457567741E-03     -0.2413162847E-03
      60       11.80      0.8470329473E-21      0.1492895570E-18     -0.2506498173E-03     -0.2462256125E-03
      62       12.20     -0.3176373552E-21      0.1518306558E-18     -0.2554589034E-03     -0.2510510656E-03
      64       12.60      0.1058791184E-20      0.1552187876E-18     -0.2601854728E-03     -0.2557940770E-03
      66       13.00     -0.1270549421E-20      0.1580245842E-18     -0.2648309416E-03     -0.2604560553E-03
      68       13.40     -0.8470329473E-21      0.1575216584E-18     -0.2693967012E-03     -0.2650383848E-03
      70       13.80     -0.8470329473E-21      0.1602480457E-18     -0.2738841194E-03     -0.2695424264E-03
      72       14.20     -0.2117582368E-21      0.1679772214E-18     -0.2782945403E-03     -0.2739695175E-03
      74       14.60     -0.3388131789E-20      0.1677125236E-18     -0.2826292852E-03     -0.2783209728E-03
      76       15.00     -0.4341043855E-20      0.1727947212E-18     -0.2868896524E-03     -0.2825980847E-03
      78       15.40     -0.2964615315E-20      0.1721594465E-18     -0.2910769182E-03     -0.2868021231E-03
      80       15.80     -0.7835054762E-20      0.1762887321E-18     -0.2951923370E-03     -0.2909343366E-03
      82       16.20     -0.6564505341E-20      0.1772416442E-18     -0.2992371414E-03     -0.2949959522E-03
      84       16.60     -0.6140988868E-20      0.1859237319E-18     -0.3032125432E-03     -0.2989881761E-03
      86       17.00     -0.6776263578E-20      0.1853943363E-18     -0.3071197332E-03     -0.3029121939E-03
      88       17.40     -0.1037615360E-19      0.1891001055E-18     -0.3109598817E-03     -0.3067691708E-03
      90       17.80     -0.1058791184E-19      0.1901588967E-18     -0.3147341392E-03     -0.3105602522E-03
      92       18.20     -0.1037615360E-19      0.1892059846E-18     -0.3184436362E-03     -0.3142865639E-03
      94       18.60     -0.1439956010E-19      0.1926999955E-18     -0.3220894839E-03     -0.3179492125E-03
      96       19.00     -0.1482307658E-19      0.1956646108E-18     -0.3256727743E-03     -0.3215492856E-03
      98       19.40     -0.1747005454E-19      0.1964057646E-18     -0.3291945810E-03     -0.3250878524E-03
     100       19.80     -0.1863472484E-19      0.1982057097E-18     -0.3326559589E-03     -0.3285659636E-03
     102       20.20     -0.1905824131E-19      0.2032879073E-18     -0.3360579448E-03     -0.3319846522E-03
     104       20.60     -0.1926999955E-19      0.2041349403E-18     -0.3394015579E-03     -0.3353449334E-03
     106       21.00     -0.1863472484E-19      0.2062525227E-18     -0.3426877996E-03     -0.3386478049E-03
     108       21.40     -0.2054054897E-19      0.2089524402E-18     -0.3459176544E-03     -0.3418942477E-03
     110       21.80     -0.2054054897E-19      0.2102759292E-18     -0.3490920899E-03     -0.3450852259E-03
     112       22.20     -0.2414043900E-19      0.2132405445E-18     -0.3522120569E-03     -0.3482216869E-03
     114       22.60     -0.1948175779E-19      0.2166286763E-18     -0.3552784901E-03     -0.3513045623E-03
     116       23.00     -0.1905824131E-19      0.2181109839E-18     -0.3582923079E-03     -0.3543347676E-03
     118       23.40     -0.2075230721E-19      0.2206520828E-18     -0.3612544132E-03     -0.3573132025E-03
     120       23.80     -0.2075230721E-19      0.2242519728E-18     -0.3641656933E-03     -0.3602407516E-03
     122       24.20     -0.1609362600E-19      0.2290694727E-18     -0.3670270203E-03     -0.3631182843E-03
     124       24.60     -0.1778769189E-19      0.2282753793E-18     -0.3698392513E-03     -0.3659466550E-03
     126       25.00     -0.1821120837E-19      0.2333575770E-18     -0.3726032287E-03     -0.3687267037E-03
     128       25.40     -0.1926999955E-19      0.2347869451E-18     -0.3753197804E-03     -0.3714592560E-03
     130       25.80     -0.1821120837E-19      0.2375927417E-18     -0.3779897203E-03     -0.3741451233E-03
     132       26.20     -0.1355252716E-19      0.2426749394E-18     -0.3806138481E-03     -0.3767851032E-03
     134       26.60     -0.1418780187E-19      0.2465924668E-18     -0.3831929498E-03     -0.3793799797E-03
     136       27.00     -0.1503483481E-19      0.2519923018E-18     -0.3857277982E-03     -0.3819305234E-03
     138       27.40     -0.1270549421E-19      0.2513570271E-18     -0.3882191523E-03     -0.3844374917E-03
     140       27.80     -0.8046812999E-20      0.2551686754E-18     -0.3906677587E-03     -0.3869016290E-03
     142       28.20     -0.7835054762E-20      0.2569686204E-18     -0.3930743507E-03     -0.3893236672E-03
     144       28.60     -0.3599890026E-20      0.2618919994E-18     -0.3954396493E-03     -0.3917043254E-03
     146       29.00     -0.4870439447E-20      0.2640625213E-18     -0.3977643629E-03     -0.3940443107E-03
     148       29.40     -0.5082197684E-20      0.2659683454E-18     -0.4000491880E-03     -0.3963443179E-03
     150       29.80     -0.4446922973E-20      0.2657565872E-18     -0.4022948090E-03     -0.3986050301E-03
     152       30.20     -0.6670384460E-20      0.2725328508E-18     -0.4045018986E-03     -0.4008271185E-03
     154       30.60     -0.5082197684E-20      0.2727446090E-18     -0.4066711178E-03     -0.4030112431E-03
     156       31.00     -0.5293955920E-20      0.2725328508E-18     -0.4088031166E-03     -0.4051580525E-03
     158       31.40     -0.4235164736E-21      0.2757092243E-18     -0.4108985336E-03     -0.4072681842E-03
     160       31.80     -0.2117582368E-20      0.2793091144E-18     -0.4129579964E-03     -0.4093422648E-03
     162       32.20     -0.2117582368E-21      0.2818502132E-18     -0.4149821219E-03     -0.4113809103E-03
     164       32.60     -0.2117582368E-21      0.2829090044E-18     -0.4169715165E-03     -0.4133847260E-03
     166       33.00     -0.2117582368E-21      0.2835442791E-18     -0.4189267762E-03     -0.4153543070E-03
     168       33.40      0.2541098842E-20      0.2871441691E-18     -0.4208484866E-03     -0.4172902382E-03
     170       33.80      0.2117582368E-20      0.2918028503E-18     -0.4227372234E-03     -0.4191930945E-03
     172       34.20      0.3811648263E-20      0.2913793339E-18     -0.4245935523E-03     -0.4210634409E-03
     174       34.60      0.7623296525E-20      0.2896852680E-18     -0.4264180295E-03     -0.4229018330E-03
     176       35.00      0.5929230631E-20      0.2935498558E-18     -0.4282112014E-03     -0.4247088166E-03
     178       35.40      0.1058791184E-20      0.2977320810E-18     -0.4299736052E-03     -0.4264849283E-03
     180       35.80      0.3282252671E-20      0.2944498283E-18     -0.4317057689E-03     -0.4282306956E-03
     182       36.20      0.6140988868E-20      0.2923851855E-18     -0.4334082113E-03     -0.4299466368E-03
     184       36.60      0.6140988868E-20      0.2968850480E-18     -0.4350814423E-03     -0.4316332617E-03
     186       37.00      0.8470329473E-20      0.2977320810E-18     -0.4367259633E-03     -0.4332910710E-03
     188       37.40      0.1016439537E-19      0.2981555974E-18     -0.4383422668E-03     -0.4349205570E-03
     190       37.80      0.8470329473E-20      0.3015437292E-18     -0.4399308370E-03     -0.4365222036E-03
     192       38.20      0.1482307658E-19      0.2999026029E-18     -0.4414921498E-03     -0.4380964866E-03
     194       38.60      0.9317362420E-20      0.2998496633E-18     -0.4430266728E-03     -0.4396438732E-03
     196       39.00      0.1207021950E-19      0.3004849380E-18     -0.4445348657E-03     -0.4411648232E-03
     198       39.40      0.8470329473E-20      0.3028142786E-18     -0.4460171804E-03     -0.4426597881E-03
     200       39.80      0.4446922973E-20      0.3040848281E-18     -0.4474740608E-03     -0.4441292119E-03
     202       40.20      0.1122318655E-19      0.3028142786E-18     -0.4489059433E-03     -0.4455735310E-03
     204       40.60      0.7199780052E-20      0.3101199378E-18     -0.4503132570E-03     -0.4469931742E-03
     206       41.00      0.1079967008E-19      0.3068376851E-18     -0.4516964233E-03     -0.4483885632E-03
     208       41.40      0.1037615360E-19      0.3081082346E-18     -0.4530558565E-03     -0.4497601123E-03
     210       41.80      0.9529120657E-20      0.3049318610E-18     -0.4543919640E-03     -0.4511082288E-03
     212       42.20      0.8893845946E-20      0.3070494434E-18     -0.4557051458E-03     -0.4524333131E-03
     214       42.60      0.1016439537E-19      0.3125551575E-18     -0.4569957955E-03     -0.4537357586E-03
     216       43.00      0.1270549421E-19      0.3117081246E-18     -0.4582642996E-03     -0.4550159522E-03
     218       43.40      0.1397604363E-19      0.3125551575E-18     -0.4595110382E-03     -0.4562742740E-03
     220       43.80      0.1016439537E-19      0.3129786740E-18     -0.4607363845E-03     -0.4575110977E-03
     222       44.20      0.9105604183E-20      0.3148844981E-18     -0.4619407058E-03     -0.4587267906E-03
     224       44.60      0.1312901068E-19      0.3108610916E-18     -0.4631243628E-03     -0.4599217136E-03
     226       45.00      0.1694065895E-19      0.3146727399E-18     -0.4642877101E-03     -0.4610962217E-03
     228       45.40      0.1101142831E-19      0.3180608717E-18     -0.4654310960E-03     -0.4622506636E-03
     230       45.80      0.1101142831E-19      0.3191196629E-18     -0.4665548633E-03     -0.4633853821E-03
     232       46.20      0.5082197684E-20      0.3193314211E-18     -0.4676593483E-03     -0.4645007143E-03
     234       46.60      0.1016439537E-19      0.3214490035E-18     -0.4687448822E-03     -0.4655969913E-03
     236       47.00      0.7835054762E-20      0.3225077947E-18     -0.4698117899E-03     -0.4666745386E-03
     238       47.40      0.4235164736E-20      0.3278017506E-18     -0.4708603911E-03     -0.4677336764E-03
     240       47.80      0.7729175644E-20      0.3284370253E-18     -0.4718909998E-03     -0.4687747190E-03
     242       48.20      0.5082197684E-20      0.3261076847E-18     -0.4729039250E-03     -0.4697979757E-03
     244       48.60      0.1037615360E-19      0.3296546352E-18     -0.4738994698E-03     -0.4708037502E-03
     246       49.00      0.1058791184E-19      0.3322486736E-18     -0.4748779327E-03     -0.4717923414E-03
     248       49.40      0.8682087709E-20      0.3292840582E-18     -0.4758396066E-03     -0.4727640427E-03
     250       49.80      0.1016439537E-19      0.3323545527E-18     -0.4767847796E-03     -0.4737191428E-03
     252       50.20      0.7623296525E-20      0.3299193330E-18     -0.4777137350E-03     -0.4746579252E-03
     254       50.60      0.7411538288E-20      0.3307663659E-18     -0.4786267508E-03     -0.4755806688E-03
     256       51.00      0.1058791184E-19      0.3350015306E-18     -0.4795241007E-03     -0.4764876475E-03
     258       51.40      0.1249373597E-19      0.3337309812E-18     -0.4804060535E-03     -0.4773791307E-03
     260       51.80      0.9740878893E-20      0.3316133989E-18     -0.4812728733E-03     -0.4782553831E-03
     262       52.20      0.8470329473E-20      0.3299193330E-18     -0.4821248197E-03     -0.4791166650E-03
     264       52.60      0.9105604183E-20      0.3309781241E-18     -0.4829621481E-03     -0.4799632320E-03
     266       53.00      0.8893845946E-20      0.3294958165E-18     -0.4837851092E-03     -0.4807953357E-03
     268       53.40      0.6988021815E-20      0.3322486736E-18     -0.4845939496E-03     -0.4816132231E-03
     270       53.80      0.8046812999E-20      0.3265312012E-18     -0.4853889114E-03     -0.4824171371E-03
     272       54.20      0.8470329473E-20      0.3306604868E-18     -0.4861702330E-03     -0.4832073165E-03
     274       54.60      0.1058791184E-19      0.3252606517E-18     -0.4869381482E-03     -0.4839839958E-03
     276       55.00      0.6564505341E-20      0.3284370253E-18     -0.4876928872E-03     -0.4847474057E-03
     278       55.40      0.3599890026E-20      0.3275899924E-18     -0.4884346760E-03     -0.4854977730E-03
     280       55.80      0.9317362420E-20      0.3256841682E-18     -0.4891637369E-03     -0.4862353204E-03
     282       56.20      0.5929230631E-20      0.3261076847E-18     -0.4898802882E-03     -0.4869602670E-03
     284       56.60      0.8470329473E-20      0.3289664209E-18     -0.4905845446E-03     -0.4876728281E-03
     286       57.00      0.6352747104E-20      0.3263194429E-18     -0.4912767169E-03     -0.4883732152E-03
     288       57.40      0.6776263578E-20      0.3321427944E-18     -0.4919570127E-03     -0.4890616365E-03
     290       57.80      0.6988021815E-20      0.3256841682E-18     -0.4926256357E-03     -0.4897382962E-03
     292       58.20      0.3811648263E-20      0.3252606517E-18     -0.4932827860E-03     -0.4904033953E-03
     294       58.60      0.5929230631E-20      0.3210254870E-18     -0.4939286607E-03     -0.4910571314E-03
     296       59.00      0.3811648263E-20      0.3262665034E-18     -0.4945634532E-03     -0.4916996985E-03
     298       59.40      0.1694065895E-20      0.3227195529E-18     -0.4951873536E-03     -0.4923312876E-03
     300       59.80      0.2541098842E-20      0.3231430694E-18     -0.4958005488E-03     -0.4929520861E-03
     302       60.20      0.2964615315E-20      0.3242018606E-18     -0.4964032225E-03     -0.4935622785E-03
     304       60.60      0.5082197684E-20      0.3227195529E-18     -0.4969955552E-03     -0.4941620458E-03
     306       61.00      0.2964615315E-20      0.3193314211E-18     -0.4975777245E-03     -0.4947515663E-03
     308       61.40      0.2541098842E-20      0.3235665859E-18     -0.4981499045E-03     -0.4953310149E-03
     310       61.80      0.3388131789E-20      0.3184843882E-18     -0.4987122669E-03     -0.4959005639E-03
     312       62.20      0.2541098842E-20      0.3227195529E-18     -0.4992649800E-03     -0.4964603822E-03
     314       62.60      0.1588186776E-20      0.3200725749E-18     -0.4998082093E-03     -0.4970106361E-03
     316       63.00     -0.8470329473E-21      0.3218725200E-18     -0.5003421177E-03     -0.4975514891E-03
     318       63.40      0.4658681210E-20      0.3201784541E-18     -0.5008668650E-03     -0.4980831018E-03
     320       63.80      0.3176373552E-20      0.3227195529E-18     -0.5013826084E-03     -0.4986056320E-03
     322       64.20     -0.4235164736E-21      0.3193314211E-18     -0.5018895025E-03     -0.4991192349E-03
     324       64.60     -0.1270549421E-20      0.3218725200E-18     -0.5023876991E-03     -0.4996240630E-03
     326       65.00      0.1694065895E-20      0.3184843882E-18     -0.5028773473E-03     -0.5001202663E-03
     328       65.40     -0.4235164736E-20      0.3214490035E-18     -0.5033585939E-03     -0.5006079920E-03
     330       65.80     -0.2117582368E-21      0.3142492234E-18     -0.5038315831E-03     -0.5010873851E-03
     332       66.20      0.1482307658E-20      0.3176373552E-18     -0.5042964565E-03     -0.5015585879E-03
     334       66.60      0.2541098842E-20      0.3182726299E-18     -0.5047533534E-03     -0.5020217402E-03
     336       67.00     -0.2541098842E-20      0.3153080146E-18     -0.5052024106E-03     -0.5024769798E-03
     338       67.40      0.4658681210E-20      0.3142492234E-18     -0.5056437627E-03     -0.5029244417E-03
     340       67.80      0.5082197684E-20      0.3193314211E-18     -0.5060775419E-03     -0.5033642588E-03
     342       68.20      0.2329340605E-20      0.3157315311E-18     -0.5065038780E-03     -0.5037965617E-03
     344       68.60      0.5823351512E-20      0.3171079596E-18     -0.5069228989E-03     -0.5042214788E-03
     346       69.00      0.4658681210E-20      0.3159432893E-18     -0.5073347301E-03     -0.5046391364E-03
     348       69.40      0.2329340605E-20      0.3134021905E-18     -0.5077394948E-03     -0.5050496584E-03
     350       69.80      0.6776263578E-20      0.3146727399E-18     -0.5081373144E-03     -0.5054531667E-03
     352       70.20      0.3811648263E-20      0.3146727399E-18     -0.5085283080E-03     -0.5058497811E-03
     354       70.60      0.1694065895E-20      0.3142492234E-18     -0.5089125928E-03     -0.5062396195E-03
     356       71.00      0.4658681210E-20      0.3150962564E-18     -0.5092902838E-03     -0.5066227976E-03
     358       71.40      0.2964615315E-20      0.3138257070E-18     -0.5096614942E-03     -0.5069994292E-03
     360       71.80      0.5929230631E-20      0.3104375752E-18     -0.5100263352E-03     -0.5073696262E-03
     362       72.20      0.2117582368E-20      0.3159432893E-18     -0.5103849161E-03     -0.5077334984E-03
     364       72.60      0.1058791184E-19      0.3100140587E-18     -0.5107373443E-03     -0.5080911540E-03
