#   Energy (eV)             Gaussian convolution    Simple bin
  4.000000000000000E-004   2.27793831358543       0.000000000000000E+000
  1.200000000000000E-003   2.27775903891800       0.000000000000000E+000
  2.000000000000000E-003   2.27740076331603       0.000000000000000E+000
  2.800000000000000E-003   2.27686381469677       0.000000000000000E+000
  3.600000000000000E-003   2.27614856495717       0.000000000000000E+000
  4.400000000000000E-003   2.27525542971933       0.000000000000000E+000
  5.200000000000001E-003   2.27418486805568       0.000000000000000E+000
  6.000000000000000E-003   2.27293738219387       0.000000000000000E+000
  6.800000000000000E-003   2.27151351720194       0.000000000000000E+000
  7.600000000000000E-003   2.26991386065386       0.000000000000000E+000
  8.400000000000001E-003   2.26813904227576       0.000000000000000E+000
  9.200000000000000E-003   2.26618973357333       0.000000000000000E+000
  1.000000000000000E-002   2.26406664744049       0.000000000000000E+000
  1.080000000000000E-002   2.26177053774989       0.000000000000000E+000
  1.160000000000000E-002   2.25930219892543       0.000000000000000E+000
  1.240000000000000E-002   2.25666246549741       0.000000000000000E+000
  1.320000000000000E-002   2.25385221164042       0.000000000000000E+000
  1.400000000000000E-002   2.25087235069466       0.000000000000000E+000
  1.480000000000000E-002   2.24772383467090       0.000000000000000E+000
  1.560000000000000E-002   2.24440765373960       0.000000000000000E+000
  1.640000000000000E-002   2.24092483570475       0.000000000000000E+000
  1.720000000000000E-002   2.23727644546259       0.000000000000000E+000
  1.800000000000000E-002   2.23346358444603       0.000000000000000E+000
  1.880000000000000E-002   2.22948739005495       0.000000000000000E+000
  1.960000000000000E-002   2.22534903507311       0.000000000000000E+000
  2.040000000000000E-002   2.22104972707193       0.000000000000000E+000
  2.120000000000000E-002   2.21659070780186       0.000000000000000E+000
  2.200000000000000E-002   2.21197325257166       0.000000000000000E+000
  2.280000000000000E-002   2.20719866961628       0.000000000000000E+000
  2.360000000000000E-002   2.20226829945365       0.000000000000000E+000
  2.440000000000000E-002   2.19718351423114       0.000000000000000E+000
  2.520000000000000E-002   2.19194571706204       0.000000000000000E+000
  2.600000000000000E-002   2.18655634135259       0.000000000000000E+000
  2.680000000000000E-002   2.18101685012028       0.000000000000000E+000
  2.760000000000000E-002   2.17532873530369       0.000000000000000E+000
  2.840000000000000E-002   2.16949351706461       0.000000000000000E+000
  2.920000000000000E-002   2.16351274308285       0.000000000000000E+000
  3.000000000000000E-002   2.15738798784437       0.000000000000000E+000
  3.080000000000000E-002   2.15112085192315       0.000000000000000E+000
  3.160000000000000E-002   2.14471296125747       0.000000000000000E+000
  3.240000000000000E-002   2.13816596642094       0.000000000000000E+000
  3.320000000000000E-002   2.13148154188900       0.000000000000000E+000
  3.400000000000000E-002   2.12466138530130       0.000000000000000E+000
  3.480000000000000E-002   2.11770721672048       0.000000000000000E+000
  3.560000000000000E-002   2.11062077788787       0.000000000000000E+000
  3.640000000000000E-002   2.10340383147666       0.000000000000000E+000
  3.720000000000000E-002   2.09605816034295       1.753172215760826E-034
  3.800000000000000E-002   2.08858556677526       0.000000000000000E+000
  3.880000000000000E-002   2.08098787174293       0.000000000000000E+000
  3.960000000000000E-002   2.07326691414389       0.000000000000000E+000
  4.040000000000001E-002   2.06542455005235       0.000000000000000E+000
  4.120000000000000E-002   2.05746265196667       0.000000000000000E+000
  4.200000000000000E-002   2.04938310805814       0.000000000000000E+000
  4.280000000000000E-002   2.04118782142089       0.000000000000000E+000
  4.360000000000000E-002   2.03287870932343       0.000000000000000E+000
  4.440000000000000E-002   2.02445770246230       0.000000000000000E+000
  4.520000000000000E-002   2.01592674421818       0.000000000000000E+000
  4.600000000000000E-002   2.00728778991485       0.000000000000000E+000
  4.680000000000000E-002   1.99854280608146       0.000000000000000E+000
  4.760000000000000E-002   1.98969376971842       0.000000000000000E+000
  4.840000000000001E-002   1.98074266756737       0.000000000000000E+000
  4.920000000000000E-002   1.97169149538542       0.000000000000000E+000
  5.000000000000000E-002   1.96254225722425       0.000000000000000E+000
  5.080000000000000E-002   1.95329696471419       0.000000000000000E+000
  5.160000000000000E-002   1.94395763635367       0.000000000000000E+000
  5.240000000000000E-002   1.93452629680446       0.000000000000000E+000
  5.320000000000000E-002   1.92500497619285       0.000000000000000E+000
  5.400000000000000E-002   1.91539570941709       0.000000000000000E+000
  5.480000000000000E-002   1.90570053546148       0.000000000000000E+000
  5.560000000000000E-002   1.89592149671723       0.000000000000000E+000
  5.640000000000001E-002   1.88606063831043       0.000000000000000E+000
  5.720000000000000E-002   1.87612000743737       0.000000000000000E+000
  5.800000000000000E-002   1.86610165270736       0.000000000000000E+000
  5.880000000000001E-002   1.85600762349340       0.000000000000000E+000
  5.960000000000000E-002   1.84583996929081       0.000000000000000E+000
  6.040000000000000E-002   1.83560073908402       0.000000000000000E+000
  6.120000000000000E-002   1.82529198072182       0.000000000000000E+000
  6.200000000000000E-002   1.81491574030101       0.000000000000000E+000
  6.280000000000001E-002   1.80447406155892       0.000000000000000E+000
  6.360000000000000E-002   1.79396898527470       0.000000000000000E+000
  6.440000000000000E-002   1.78340254867964       0.000000000000000E+000
  6.520000000000001E-002   1.77277678487667       0.000000000000000E+000
  6.600000000000000E-002   1.76209372226906       0.000000000000000E+000
  6.680000000000000E-002   1.75135538399857       0.000000000000000E+000
  6.760000000000001E-002   1.74056378739303       0.000000000000000E+000
  6.840000000000000E-002   1.72972094342358       0.000000000000000E+000
  6.920000000000000E-002   1.71882885617149       0.000000000000000E+000
  7.000000000000001E-002   1.70788952230475       0.000000000000000E+000
  7.080000000000000E-002   1.69690493056457       0.000000000000000E+000
  7.160000000000000E-002   1.68587706126161       0.000000000000000E+000
  7.240000000000001E-002   1.67480788578225       0.000000000000000E+000
  7.320000000000000E-002   1.66369936610480       0.000000000000000E+000
  7.400000000000001E-002   1.65255345432572       0.000000000000000E+000
  7.480000000000001E-002   1.64137209219593       0.000000000000000E+000
  7.560000000000000E-002   1.63015721066713       0.000000000000000E+000
  7.640000000000001E-002   1.61891072944825       0.000000000000000E+000
  7.720000000000000E-002   1.60763455657202       0.000000000000000E+000
  7.800000000000000E-002   1.59633058797161       0.000000000000000E+000
  7.880000000000001E-002   1.58500070706739       0.000000000000000E+000
  7.960000000000000E-002   1.57364678436380       0.000000000000000E+000
  8.040000000000000E-002   1.56227067705634       0.000000000000000E+000
  8.120000000000001E-002   1.55087422864858       0.000000000000000E+000
  8.200000000000000E-002   1.53945926857926       0.000000000000000E+000
  8.280000000000000E-002   1.52802761185941       0.000000000000000E+000
  8.360000000000001E-002   1.51658105871951       0.000000000000000E+000
  8.440000000000000E-002   1.50512139426657       0.000000000000000E+000
  8.520000000000000E-002   1.49365038815114       0.000000000000000E+000
  8.600000000000001E-002   1.48216979424424       0.000000000000000E+000
  8.680000000000000E-002   1.47068135032414       0.000000000000000E+000
  8.760000000000000E-002   1.45918677777290       0.000000000000000E+000
  8.840000000000001E-002   1.44768778128268       0.000000000000000E+000
  8.920000000000000E-002   1.43618604857174       0.000000000000000E+000
  9.000000000000001E-002   1.42468325011007       0.000000000000000E+000
  9.080000000000001E-002   1.41318103885461       0.000000000000000E+000
  9.160000000000000E-002   1.40168104999396       0.000000000000000E+000
  9.240000000000001E-002   1.39018490070255       0.000000000000000E+000
  9.320000000000001E-002   1.37869418990422       0.000000000000000E+000
  9.400000000000000E-002   1.36721049804507       0.000000000000000E+000
  9.480000000000001E-002   1.35573538687561       0.000000000000000E+000
  9.560000000000000E-002   1.34427039924200       0.000000000000000E+000
  9.640000000000000E-002   1.33281705888651       0.000000000000000E+000
  9.720000000000001E-002   1.32137687025691       0.000000000000000E+000
  9.800000000000000E-002   1.30995131832482       0.000000000000000E+000
  9.880000000000000E-002   1.29854186841298       0.000000000000000E+000
  9.960000000000001E-002   1.28714996603127       0.000000000000000E+000
  0.100400000000000        1.27577703672148       0.000000000000000E+000
  0.101200000000000        1.26442448591065       0.000000000000000E+000
  0.102000000000000        1.25309369877300       0.000000000000000E+000
  0.102800000000000        1.24178604010034       0.000000000000000E+000
  0.103600000000000        1.23050285418084       0.000000000000000E+000
  0.104400000000000        1.21924546468607       0.000000000000000E+000
  0.105200000000000        1.20801517456627       0.000000000000000E+000
  0.106000000000000        1.19681326595380       0.000000000000000E+000
  0.106800000000000        1.18564100007448       0.000000000000000E+000
  0.107600000000000        1.17449961716705       0.000000000000000E+000
  0.108400000000000        1.16339033641033       0.000000000000000E+000
  0.109200000000000        1.15231435585825       0.000000000000000E+000
  0.110000000000000        1.14127285238254       0.000000000000000E+000
  0.110800000000000        1.13026698162293       0.000000000000000E+000
  0.111600000000000        1.11929787794492       0.000000000000000E+000
  0.112400000000000        1.10836665440494       0.000000000000000E+000
  0.113200000000000        1.09747440272278       0.000000000000000E+000
  0.114000000000000        1.08662219326128       0.000000000000000E+000
  0.114800000000000        1.07581107501305       0.000000000000000E+000
  0.115600000000000        1.06504207559432       0.000000000000000E+000
  0.116400000000000        1.05431620124566       0.000000000000000E+000
  0.117200000000000        1.04363443683953       0.000000000000000E+000
  0.118000000000000        1.03299774589454       0.000000000000000E+000
  0.118800000000000        1.02240707059642       0.000000000000000E+000
  0.119600000000000        1.01186333182544       0.000000000000000E+000
  0.120400000000000        1.00136742919034       0.000000000000000E+000
  0.121200000000000       0.990920241068524       0.000000000000000E+000
  0.122000000000000       0.980522624652558       0.000000000000000E+000
  0.122800000000000       0.970175416002771       0.000000000000000E+000
  0.123600000000000       0.959879430105901       0.000000000000000E+000
  0.124400000000000       0.949635460939668       0.000000000000000E+000
  0.125200000000000       0.939444281543184       0.000000000000000E+000
  0.126000000000000       0.929306644093092       0.000000000000000E+000
  0.126800000000000       0.919223279985322       0.000000000000000E+000
  0.127600000000000       0.909194899922373       0.000000000000000E+000
  0.128400000000000       0.899222194006013       0.000000000000000E+000
  0.129200000000000       0.889305831835277       0.000000000000000E+000
  0.130000000000000       0.879446462609681       0.000000000000000E+000
  0.130800000000000       0.869644715237528       0.000000000000000E+000
  0.131600000000000       0.859901198449202       0.000000000000000E+000
  0.132400000000000       0.850216500915352       0.000000000000000E+000
  0.133200000000000       0.840591191369843       0.000000000000000E+000
  0.134000000000000       0.831025818737384       0.000000000000000E+000
  0.134800000000000       0.821520912265697       0.000000000000000E+000
  0.135600000000000       0.812076981662155       0.000000000000000E+000
  0.136400000000000       0.802694517234748       0.000000000000000E+000
  0.137200000000000       0.793373990037273       0.000000000000000E+000
  0.138000000000000       0.784115852018663       0.000000000000000E+000
  0.138800000000000       0.774920536176297       0.000000000000000E+000
  0.139600000000000       0.765788456713232       0.000000000000000E+000
  0.140400000000000       0.756720009199212       0.000000000000000E+000
  0.141200000000000       0.747715570735350       0.000000000000000E+000
  0.142000000000000       0.738775500122378       0.000000000000000E+000
  0.142800000000000       0.729900138032355       0.000000000000000E+000
  0.143600000000000       0.721089807183705       0.000000000000000E+000
  0.144400000000000       0.712344812519495       0.000000000000000E+000
  0.145200000000000       0.703665441388830       0.000000000000000E+000
  0.146000000000000       0.695051963731249       0.000000000000000E+000
  0.146800000000000       0.686504632264029       0.000000000000000E+000
  0.147600000000000       0.678023682672259       0.000000000000000E+000
  0.148400000000000       0.669609333801600       0.000000000000000E+000
  0.149200000000000       0.661261787853600       0.000000000000000E+000
  0.150000000000000       0.652981230583470       0.000000000000000E+000
  0.150800000000000       0.644767831500193       0.000000000000000E+000
  0.151600000000000       0.636621744068874       0.000000000000000E+000
  0.152400000000000       0.628543105915206       0.000000000000000E+000
  0.153200000000000       0.620532039031959       0.000000000000000E+000
  0.154000000000000       0.612588649987363       0.000000000000000E+000
  0.154800000000000       0.604713030135309       0.000000000000000E+000
  0.155600000000000       0.596905255827219       0.000000000000000E+000
  0.156400000000000       0.589165388625516       0.000000000000000E+000
  0.157200000000000       0.581493475518569       0.000000000000000E+000
  0.158000000000000       0.573889549137009       0.000000000000000E+000
  0.158800000000000       0.566353627971321       0.000000000000000E+000
  0.159600000000000       0.558885716590596       0.000000000000000E+000
  0.160400000000000       0.551485805862352       0.000000000000000E+000
  0.161200000000000       0.544153873173315       0.000000000000000E+000
  0.162000000000000       0.536889882651063       0.000000000000000E+000
  0.162800000000000       0.529693785386430       0.000000000000000E+000
  0.163600000000000       0.522565519656580       0.000000000000000E+000
  0.164400000000000       0.515505011148642       0.000000000000000E+000
  0.165200000000000       0.508512173183814       0.000000000000000E+000
  0.166000000000000       0.501586906941854       0.000000000000000E+000
  0.166800000000000       0.494729101685834       0.000000000000000E+000
  0.167600000000000       0.487938634987102       0.000000000000000E+000
  0.168400000000000       0.481215372950332       0.000000000000000E+000
  0.169200000000000       0.474559170438581       0.000000000000000E+000
  0.170000000000000       0.467969871298272       0.000000000000000E+000
  0.170800000000000       0.461447308584003       0.000000000000000E+000
  0.171600000000000       0.454991304783110       0.000000000000000E+000
  0.172400000000000       0.448601672039886       0.000000000000000E+000
  0.173200000000000       0.442278212379382       0.000000000000000E+000
  0.174000000000000       0.436020717930711       0.000000000000000E+000
  0.174800000000000       0.429828971149764       0.000000000000000E+000
  0.175600000000000       0.423702745041272       0.000000000000000E+000
  0.176400000000000       0.417641803380133       0.000000000000000E+000
  0.177200000000000       0.411645900931923       0.000000000000000E+000
  0.178000000000000       0.405714783672529       0.000000000000000E+000
  0.178800000000000       0.399848189006826       0.000000000000000E+000
  0.179600000000000       0.394045845986324       0.000000000000000E+000
  0.180400000000000       0.388307475525728       0.000000000000000E+000
  0.181200000000000       0.382632790618330       0.000000000000000E+000
  0.182000000000000       0.377021496550188       0.000000000000000E+000
  0.182800000000000       0.371473291112998       0.000000000000000E+000
  0.183600000000000       0.365987864815638       0.000000000000000E+000
  0.184400000000000       0.360564901094284       0.000000000000000E+000
  0.185200000000000       0.355204076521066       0.000000000000000E+000
  0.186000000000000       0.349905061011203       0.000000000000000E+000
  0.186800000000000       0.344667518028553       0.000000000000000E+000
  0.187600000000000       0.339491104789536       0.000000000000000E+000
  0.188400000000000       0.334375472465372       0.000000000000000E+000
  0.189200000000000       0.329320266382587       0.000000000000000E+000
  0.190000000000000       0.324325126221743       0.000000000000000E+000
  0.190800000000000       0.319389686214336       0.000000000000000E+000
  0.191600000000000       0.314513575337832       0.000000000000000E+000
  0.192400000000000       0.309696417508788       0.000000000000000E+000
  0.193200000000000       0.304937831774013       0.000000000000000E+000
  0.194000000000000       0.300237432499752       0.000000000000000E+000
  0.194800000000000       0.295594829558827       0.000000000000000E+000
  0.195600000000000       0.291009628515720       0.000000000000000E+000
  0.196400000000000       0.286481430809558       0.000000000000000E+000
  0.197200000000000       0.282009833934963       0.000000000000000E+000
  0.198000000000000       0.277594431620740       0.000000000000000E+000
  0.198800000000000       0.273234814006384       0.000000000000000E+000
  0.199600000000000       0.268930567816352       0.000000000000000E+000
  0.200400000000000       0.264681276532106       0.000000000000000E+000
  0.201200000000000       0.260486520561882       0.000000000000000E+000
  0.202000000000000       0.256345877408163       0.000000000000000E+000
  0.202800000000000       0.252258921832852       0.000000000000000E+000
  0.203600000000000       0.248225226020103       0.000000000000000E+000
  0.204400000000000       0.244244359736804       0.000000000000000E+000
  0.205200000000000       0.240315890490700       0.000000000000000E+000
  0.206000000000000       0.236439383686127       0.000000000000000E+000
  0.206800000000000       0.232614402777353       0.000000000000000E+000
  0.207600000000000       0.228840509419517       0.000000000000000E+000
  0.208400000000000       0.225117263617142       0.000000000000000E+000
  0.209200000000000       0.221444223870224       0.000000000000000E+000
  0.210000000000000       0.217820947317885       0.000000000000000E+000
  0.210800000000000       0.214246989879585       0.000000000000000E+000
  0.211600000000000       0.210721906393881       0.000000000000000E+000
  0.212400000000000       0.207245250754738       0.000000000000000E+000
  0.213200000000000       0.203816576045382       0.000000000000000E+000
  0.214000000000000       0.200435434669699       0.000000000000000E+000
  0.214800000000000       0.197101378481170       0.000000000000000E+000
  0.215600000000000       0.193813958909357       0.000000000000000E+000
  0.216400000000000       0.190572727083925       0.000000000000000E+000
  0.217200000000000       0.187377233956220       0.000000000000000E+000
  0.218000000000000       0.184227030418391       0.000000000000000E+000
